Time,IR_brachial,IR_ankle
12,57718,57636
17,74273,75147
22,90516,90761
27,106965,103650
31,109449,103824
36,109461,103858
41,109444,103849
47,109454,103838
52,109461,103867
57,109457,103863
62,109480,103844
67,109464,103886
71,109465,103876
76,109457,103898
81,109470,103888
87,109476,103886
92,109487,103880
97,109473,103910
102,109484,103907
107,109482,103952
112,109493,103943
116,109480,103968
121,109482,103965
125,109490,103968
131,109488,103995
136,109508,104017
141,109522,104014
145,109521,104052
150,109512,104042
155,109537,104061
160,109580,104072
165,109574,104084
171,109586,104082
176,109583,104076
181,109581,104087
185,109603,104142
190,109581,104118
195,109578,104126
200,109590,104166
205,109580,104137
210,109567,104138
216,109557,104157
221,109562,104179
226,109563,104168
230,109583,104155
235,109569,104143
240,109558,104172
245,109551,104170
250,109540,104169
256,109517,104175
261,109506,104189
266,109499,104161
271,109514,104174
275,109496,104176
280,109474,104186
285,109447,104175
290,109444,104154
295,109445,104153
301,109458,104211
306,109467,104185
311,109464,104170
315,109463,104190
320,109479,104178
325,109492,104166
330,109484,104185
335,109487,104165
340,109457,104163
346,109483,104185
351,109489,104181
356,109578,104186
360,109590,104170
365,109513,104195
370,109521,104163
375,109524,104175
380,109533,104163
386,109528,104133
391,109528,104167
396,109513,104163
400,109526,104161
405,109544,104167
410,109551,104162
415,109538,104161
420,109560,104158
425,109556,104178
431,109580,104169
436,109584,104163
441,109584,104199
445,109600,104169
460,109632,104193
465,109621,104189
471,109599,104154
476,109589,104155
481,109592,104155
486,109593,104170
491,109601,104139
496,109589,104180
501,109578,104193
504,109577,104206
509,109583,104194
515,109573,104195
520,109560,104213
525,109571,104221
530,109550,104188
535,109553,104201
540,109563,104211
545,109538,104223
550,109538,104190
556,109541,104205
561,109534,104211
566,109541,104155
570,109528,104161
575,109542,104144
580,109529,104119
585,109530,104096
590,109531,104051
595,109538,104025
601,109546,103997
606,109532,104003
611,109525,103968
616,109524,103944
621,109528,103908
626,109527,103892
631,109536,103881
635,109526,103897
640,109542,103906
645,109547,103916
650,109540,103895
655,109538,103914
660,109544,103879
665,109548,103884
670,109539,103876
675,109538,103900
679,109538,103877
685,109553,103881
690,109552,103869
695,109564,103874
700,109565,103884
705,109557,103885
710,109576,103937
715,109564,103913
720,109575,103916
726,109566,103914
731,109575,103876
736,109566,103910
741,109577,103894
746,109566,103901
750,109588,103903
755,109576,103882
760,109585,103915
765,109578,103934
770,109568,103963
775,109576,103956
780,109590,103971
785,109573,103993
790,109582,104002
794,109593,104014
799,109584,104022
804,109599,104040
809,109596,104031
815,109584,104066
820,109593,104077
825,109600,104129
830,109589,104141
835,109587,104104
840,109607,104129
845,109604,104098
850,109597,104152
856,109600,104127
860,109588,104176
865,109593,104073
870,109608,104106
875,109607,104117
880,109589,104099
885,109579,104103
890,109601,104096
896,109629,104120
901,109638,104117
904,109679,104130
909,109680,104127
914,109609,104141
919,109611,104135
924,109614,104126
929,109617,104136
934,109617,104135
940,109620,104132
945,109617,104123
950,109614,104134
955,109616,104142
960,109609,104147
965,109631,104156
970,109624,104149
974,109621,104160
979,109631,104196
985,109627,104148
990,109622,104136
995,109613,104132
1000,109625,104106
1005,109629,104114
1010,109722,104070
1015,109706,104082
1019,109686,104128
1025,109604,104134
1030,109630,104131
1035,109652,104115
1040,109623,104128
1045,109632,104122
1050,109643,104159
1055,109637,104139
1060,109643,104079
1065,109704,104131
1071,109713,104090
1076,109696,104113
1079,109636,104135
1084,109567,104115
1089,109647,104114
1094,109653,104156
1099,109641,104145
1104,109653,104167
1110,109633,104158
1115,109637,104160
1120,109695,104158
1125,109725,104150
1130,109681,104108
1135,109665,104133
1140,109560,104131
1144,109540,104152
1149,109524,104156
1155,109592,104148
1160,109573,104171
1165,109588,104147
1170,109594,104156
1175,109586,104172
1180,109686,104131
1184,109634,104130
1189,109627,104075
1195,109537,104058
1200,109489,104055
1204,109488,104067
1209,109514,104036
1214,109544,104039
1219,109553,103998
1224,109536,104014
1229,109539,103990
1234,109637,103971
1240,109594,103958
1245,109571,103915
1250,109487,103876
1255,109462,103834
1260,109478,103879
1264,109465,103876
1269,109496,103884
1274,109526,103854
1280,109518,103872
1285,109518,103858
1290,109568,103893
1295,109604,103917
1300,109581,103839
1305,109491,103821
1309,109465,103813
1314,109457,103796
1319,109465,103822
1324,109475,103827
1329,109499,103831
1334,109500,103840
1339,109522,103822
1344,109577,103819
1349,109606,103868
1354,109573,103875
1359,109534,103923
1364,109458,103841
1370,109448,103869
1375,109463,103850
1380,109482,103846
1385,109489,103892
1393,109510,103889
1398,109497,103788
1403,109470,103874
1409,109510,103918
1413,109515,103904
1418,109516,103936
1422,109528,103933
1427,109531,103949
1432,109541,104002
1437,109537,104036
1442,109579,104011
1447,109545,104022
1453,109500,103977
1458,109492,103926
1463,109462,103931
1468,109492,103821
1472,109497,103937
1477,109530,104033
1482,109515,104028
1487,109526,104039
1492,109507,104038
1498,109554,104064
1503,109570,104127
1508,109548,104093
1513,109502,104093
1518,109494,104025
1523,109471,103970
1528,109510,103978
1531,109530,104010
1537,109537,104060
1542,109537,104072
1547,109519,104042
1552,109539,104049
1557,109543,104069
1562,109574,104140
1567,109540,104101
1572,109510,104103
1577,109503,104053
1583,109511,103968
1587,109521,103958
1592,109535,104054
1597,109545,104052
1602,109556,104054
1607,109540,104046
1612,109556,104052
1617,109581,104032
1623,109561,104069
1628,109533,104117
1633,109524,104073
1638,109517,104061
1643,109536,104002
1646,109565,103959
1651,109549,104052
1656,109571,104063
1661,109563,104048
1667,109586,104049
1672,109583,104036
1677,109582,104045
1682,109581,104030
1687,109552,104098
1692,109546,104139
1697,109536,104113
1702,109537,104100
1707,109572,104035
1712,109566,104053
1717,109563,104058
1722,109565,104047
1727,109587,104053
1732,109592,104056
1737,109602,104065
1741,109577,104057
1746,109564,104048
1752,109522,104121
1757,109523,104153
1762,109515,104131
1766,109537,104116
1771,109530,104091
1776,109530,104084
1781,109529,104089
1786,109509,104085
1792,109532,104075
1797,109543,104088
1802,109525,104080
1807,109466,104095
1812,109468,104082
1817,109439,104095
1822,109462,104141
1825,109464,104087
1830,109468,104021
1836,109464,103994
1841,109473,104010
1846,109460,103949
1851,109490,103924
1856,109509,103940
1861,109482,103915
1866,109448,103899
1871,109435,103909
1876,109419,103893
1882,109424,103866
1886,109444,103891
1891,109460,103835
1896,109442,103825
1901,109440,103818
1906,109438,103797
1911,109459,103812
1916,109481,103810
1922,109482,103782
1927,109423,103798
1932,109380,103793
1937,109403,103797
1940,109424,103773
1945,109432,103788
1950,109440,103808
1955,109435,103758
1960,109428,103781
1966,109476,103765
1971,109466,103817
1976,109470,103801
1981,109439,103790
1986,109416,103805
1991,109396,103798
1996,109410,103794
2000,109435,103805
2006,109432,103810
2011,109424,103813
2016,109429,103834
2021,109470,103808
2026,109464,103848
2031,109477,103799
2036,109443,103830
2041,109419,103838
2046,109405,103866
2052,109423,103854
2055,109428,103864
2060,109444,103877
2065,109436,103865
2070,109452,103888
2075,109448,103886
2080,109477,103901
2085,109475,103884
2091,109461,103919
2096,109441,103941
2101,109410,103913
2106,109401,103936
2111,109412,103956
2115,109453,103945
2120,109450,103958
2125,109445,103964
2130,109451,103959
2136,109446,103973
2141,109469,103972
2146,109493,103952
2151,109467,103990
2156,109425,103982
2161,109397,103979
2166,109427,103964
2169,109450,104002
2174,109458,103982
2180,109464,103995
2185,109453,103986
2190,109460,103982
2195,109482,103987
2200,109491,103965
2205,109496,103967
2210,109472,103989
2215,109466,103970
2221,109429,103969
2226,109435,103935
2230,109459,103964
2235,109458,103956
2240,109479,103952
2245,109480,103952
2250,109511,103964
2254,109501,103942
2259,109515,103974
2265,109518,103975
2270,109480,103958
2275,109467,103943
2280,109459,103989
2285,109478,103966
2289,109470,103959
2294,109483,103962
2299,109500,103969
2305,109503,103954
2310,109506,103979
2315,109521,103955
2320,109550,103953
2325,109528,103953
2330,109520,103975
2335,109478,103969
2340,109476,103972
2345,109497,103963
2349,109508,103982
2354,109517,103970
2359,109533,103968
2364,109503,103977
2369,109512,103986
2374,109527,103993
2379,109556,104001
2384,109541,103983
2390,109518,103982
2395,109513,103998
2400,109472,104015
2405,109499,103997
2409,109513,104003
2414,109504,104011
2419,109505,104018
2424,109496,104013
2429,109493,104025
2435,109516,104017
2440,109526,104015
2445,109493,104023
2450,109453,104009
2455,109430,104013
2460,109431,104046
2463,109450,104033
2468,109446,104025
2473,109456,104032
2479,109443,104005
2484,109468,103997
2489,109455,103980
2494,109466,104009
2499,109475,103952
2504,109438,103936
2509,109414,103907
2514,109377,103909
2520,109389,103912
2525,109402,103892
2529,109400,103855
2534,109415,103842
2539,109419,103828
2544,109409,103821
2549,109427,103789
2554,109442,103801
2560,109440,103795
2564,109420,103763
2569,109396,103748
2574,109367,103760
2579,109388,103747
2583,109380,103745
2588,109401,103741
2593,109395,103742
2598,109404,103728
2604,109387,103749
2609,109417,103733
2614,109402,103722
2619,109415,103732
2624,109413,103728
2629,109381,103737
2634,109370,103727
2639,109362,103748
2642,109391,103732
2648,109382,103733
2653,109401,103747
2658,109406,103730
2663,109405,103753
2668,109428,103779
2673,109443,103752
2678,109435,103753
2683,109402,103745
2689,109400,103788
2694,109370,103765
2699,109395,103760
2703,109407,103778
2708,109418,103800
2713,109420,103808
2718,109418,103799
2723,109421,103799
2728,109445,103815
2734,109426,103832
2739,109455,103831
2744,109432,103835
2749,109400,103852
2754,109385,103835
2759,109407,103858
2762,109427,103856
2767,109434,103880
2772,109427,103868
2778,109434,103874
2783,109447,103902
2788,109435,103896
2793,109467,103878
2798,109468,103905
2803,109423,103898
2808,109411,103899
2813,109403,103901
2818,109425,103922
2823,109451,103904
2828,109454,103924
2833,109456,103905
2838,109458,103911
2843,109490,103923
2848,109492,103916
2853,109487,103952
2859,109459,103908
2864,109413,103912
2869,109435,103907
2872,109480,103911
2877,109477,103923
2882,109484,103912
2887,109479,103916
2892,109483,103902
2897,109519,103897
2903,109511,103916
2908,109515,103906
2913,109509,103901
2918,109483,103908
2923,109479,103901
2928,109464,103924
2933,109483,103910
2937,109507,103901
2942,109504,103918
2948,109523,103899
2953,109517,103904
2958,109549,103908
2963,109561,103891
2968,109563,103926
2972,109531,103898
2977,109516,103907
2982,109496,103904
2988,109507,103908
2992,109528,103910
2997,109542,103922
3002,109536,103929
3007,109535,103916
3012,109560,103907
3017,109568,103918
3022,109557,103910
3027,109600,103915
3033,109570,103900
3038,109542,103917
3043,109513,103934
3048,109542,103931
3052,109562,103919
3056,109561,103927
3061,109566,103930
3066,109577,103918
3072,109574,103925
3077,109604,103948
3082,109606,103933
3087,109614,103934
3092,109599,103944
3097,109568,103947
3102,109546,103934
3107,109578,103949
3111,109572,103937
3117,109594,103960
3122,109603,103968
3127,109597,103968
3132,109595,103966
3137,109622,103970
3142,109606,103947
3147,109625,103971
3152,109584,103974
3158,109572,104001
3163,109529,103993
3168,109564,104013
3171,109556,103990
3176,109553,103988
3181,109579,103986
3186,109551,103992
3191,109548,103990
3196,109573,104002
3202,109574,103999
3207,109552,104007
3212,109525,103995
3217,109485,103972
3222,109486,103977
3227,109495,103945
3231,109499,103938
3236,109503,103910
3241,109515,103886
3247,109511,103866
3252,109517,103852
3257,109523,103870
3262,109515,103834
3267,109481,103805
3272,109487,103796
3277,109442,103787
3282,109467,103779
3286,109487,103762
3291,109476,103738
3296,109496,103728
3301,109496,103725
3306,109483,103729
3311,109505,103703
3316,109507,103696
3321,109493,103706
3326,109459,103696
3332,109469,103689
3337,109427,103692
3342,109449,103678
3347,109471,103650
3351,109456,103667
3356,109483,103687
3361,109458,103671
3366,109478,103674
3372,109495,103684
3377,109503,103689
3382,109488,103677
3386,109443,103704
3391,109438,103690
3396,109442,103685
3401,109458,103644
3406,109474,103678
3411,109486,103703
3416,109484,103681
3421,109469,103714
3426,109506,103701
3431,109500,103728
3436,109527,103736
3441,109489,103736
3446,109459,103747
3451,109440,103771
3457,109448,103757
3462,109464,103736
3467,109476,103744
3472,109480,103736
3477,109478,103761
3480,109479,103773
3485,109499,103783
3490,109496,103835
3495,109506,103804
3501,109503,103842
3506,109462,103819
3511,109469,103833
3516,109449,103849
3521,109476,103826
3526,109483,103820
3531,109493,103833
3536,109498,103806
3542,109478,103825
3546,109504,103849
3551,109520,103862
3556,109535,103851
3561,109506,103854
3566,109476,103856
3571,109469,103859
3576,109478,103848
3581,109477,103881
3587,109487,103872
3592,109490,103827
3597,109504,103825
3602,109494,103833
3605,109538,103853
3610,109529,103853
3615,109508,103849
3620,109491,103853
3625,109484,103899
3631,109472,103849
3636,109485,103853
3641,109499,103874
3646,109522,103828
3651,109517,103855
3656,109520,103826
3661,109534,103807
3666,109536,103814
3671,109552,103836
3676,109538,103859
3681,109500,103857
3686,109471,103840
3691,109499,103846
3696,109525,103890
3701,109523,103874
3706,109526,103913
3712,109536,103843
3717,109576,103821
3722,109557,103829
3727,109578,103823
3730,109549,103864
3735,109526,103840
3740,109516,103875
3745,109517,103873
3750,109559,103861
3756,109555,103887
3761,109560,103913
3766,109541,103916
3771,109551,103897
3776,109586,103883
3781,109572,103858
3786,109586,103830
3791,109539,103884
3795,109540,103864
3801,109502,103881
3806,109538,103888
3811,109566,103885
3816,109572,103891
3821,109566,103906
3825,109572,103932
3830,109579,103931
3835,109598,103898
3841,109620,103882
3846,109567,103866
3851,109549,103891
3855,109532,103907
3860,109562,103895
3865,109581,103909
3870,109591,103937
3875,109580,103939
3880,109572,103931
3886,109578,103940
3891,109597,103931
3896,109624,103938
3901,109599,103926
3906,109589,103920
3911,109557,103905
3916,109521,103927
3919,109539,103939
3924,109540,103967
3930,109539,103949
3935,109548,103943
3940,109542,103971
3945,109544,103980
3950,109550,103956
3955,109576,103989
3960,109539,103953
3965,109495,103911
3971,109501,103948
3976,109450,103913
3981,109472,103939
3985,109496,103927
3990,109494,103903
3995,109491,103888
4000,109477,103865
4005,109494,103853
4011,109484,103881
4016,109509,103861
4021,109496,103817
4026,109452,103809
4031,109421,103747
4036,109423,103725
4041,109449,103725
4044,109455,103723
4049,109458,103721
4055,109452,103701
4060,109455,103697
4065,109466,103684
4070,109470,103679
4075,109475,103724
4080,109450,103690
4085,109435,103690
4090,109399,103619
4096,109397,103647
4101,109413,103586
4106,109427,103617
4110,109433,103622
4115,109424,103660
4120,109466,103652
4125,109445,103650
4130,109467,103649
4135,109455,103650
4141,109408,103683
4146,109401,103688
4151,109410,103657
4156,109417,103649
4161,109422,103632
4166,109437,103631
4169,109435,103663
4174,109435,103664
4179,109455,103668
4185,109480,103679
4190,109473,103698
4195,109417,103704
4200,109391,103692
4205,109402,103729
4210,109426,103723
4215,109432,103712
4220,109446,103704
4226,109452,103690
4231,109441,103730
4235,109438,103756
4240,109456,103746
4245,109471,103769
4250,109465,103757
4255,109423,103764
4260,109421,103790
4265,109437,103816
4271,109435,103824
4276,109448,103789
4281,109446,103751
4285,109442,103760
4290,109448,103773
4294,109462,103802
4299,109482,103814
4304,109471,103822
4310,109434,103827
4315,109401,103835
4320,109436,103841
4325,109448,103860
4330,109464,103837
4335,109452,103852
4340,109463,103798
4345,109452,103827
4350,109462,103790
4356,109468,103803
4360,109468,103814
4365,109442,103822
4370,109452,103833
4375,109438,103824
4379,109439,103832
4384,109461,103860
4389,109471,103865
4395,109482,103832
4400,109474,103789
4405,109472,103768
4410,109493,103799
4414,109497,103814
4419,109460,103830
4424,109440,103821
4429,109466,103815
4434,109470,103833
4440,109496,103810
4445,109491,103841
4450,109499,103819
4455,109493,103820
4460,109498,103835
4465,109509,103799
4470,109503,103802
4475,109503,103796
4480,109503,103807
4485,109454,103816
4489,109493,103836
4494,109500,103838
4499,109533,103829
4504,109521,103839
4509,109524,103873
4514,109524,103857
4519,109521,103819
4525,109536,103817
4530,109515,103805
4534,109537,103834
4539,109510,103842
4544,109525,103848
4549,109553,103847
4554,109537,103860
4559,109541,103852
4564,109547,103851
4570,109544,103882
4575,109566,103892
4580,109568,103914
4585,109548,103862
4590,109558,103848
4595,109555,103836
4600,109561,103876
4603,109544,103882
4609,109551,103891
4614,109553,103887
4619,109557,103890
4624,109566,103909
4629,109559,103955
4634,109565,103916
4639,109560,103903
4644,109560,103867
4649,109567,103854
4655,109569,103892
4659,109566,103904
4664,109582,103905
4669,109588,103905
4674,109593,103921
4679,109599,103952
4684,109581,103941
4689,109610,103949
4695,109601,103968
4700,109593,103925
4705,109601,103907
4710,109606,103909
4715,109603,103907
4720,109597,103903
4723,109615,103934
4728,109610,103957
4733,109614,103952
4739,109616,103970
4744,109602,103972
4749,109620,103967
4754,109594,103997
4759,109610,103975
4764,109598,103946
4769,109581,103923
4774,109597,103959
4779,109587,103964
4784,109587,103980
4789,109586,103975
4794,109563,103978
4799,109550,103980
4804,109567,104006
4809,109558,104006
4814,109545,104009
4819,109547,103987
4825,109528,103948
4830,109537,103901
4835,109503,103901
4840,109525,103924
4844,109509,103906
4849,109499,103895
4854,109523,103891
4858,109510,103843
4864,109506,103831
4869,109504,103822
4874,109487,103810
4879,109503,103775
4884,109502,103729
4889,109492,103676
4894,109494,103708
4898,109494,103725
4903,109494,103709
4909,109475,103702
4914,109480,103685
4919,109482,103663
4924,109477,103678
4929,109467,103707
4934,109470,103717
4939,109470,103675
4944,109471,103604
4950,109454,103626
4955,109468,103590
4960,109461,103615
4964,109453,103630
4969,109461,103657
4974,109461,103636
4979,109456,103635
4984,109436,103644
4989,109456,103674
4995,109462,103640
5000,109471,103646
5005,109459,103619
5010,109465,103631
5013,109477,103633
5018,109474,103646
5023,109475,103660
5028,109476,103656
5033,109464,103668
5039,109475,103674
5044,109484,103675
5049,109477,103716
5054,109475,103731
5059,109480,103641
5064,109492,103682
5069,109483,103675
5074,109487,103691
5079,109496,103715
5084,109475,103716
5089,109485,103742
5094,109488,103763
5099,109491,103754
5104,109486,103783
5109,109492,103786
5114,109493,103795
5120,109474,103765
5125,109478,103748
5130,109485,103751
5135,109478,103772
5138,109497,103787
5143,109506,103804
5148,109510,103804
5153,109501,103799
5158,109508,103829
5164,109504,103835
5169,109512,103843
5174,109496,103862
5179,109496,103791
5184,109507,103794
5189,109495,103807
5194,109519,103802
5198,109502,103844
5203,109504,103827
5209,109505,103851
5214,109521,103823
5219,109506,103833
5224,109511,103850
5229,109521,103832
5234,109512,103858
5239,109524,103806
5244,109532,103797
5249,109538,103785
5254,109536,103797
5258,109523,103820
5263,109529,103814
5268,109533,103828
5273,109545,103828
5278,109538,103831
5283,109546,103846
5288,109544,103856
5294,109551,103846
5299,109554,103815
5304,109539,103797
5309,109557,103774
5314,109558,103775
5318,109550,103825
5323,109547,103823
5328,109559,103843
5334,109555,103821
5339,109569,103848
5344,109565,103844
5349,109561,103831
5354,109563,103814
5359,109579,103793
5364,109588,103781
5369,109586,103806
5372,109591,103825
5378,109586,103842
5383,109578,103835
5388,109590,103860
5393,109582,103876
5398,109589,103867
5403,109593,103832
5408,109603,103833
5413,109600,103833
5417,109623,103838
5423,109617,103907
5428,109606,103862
5433,109605,103881
5438,109621,103890
5443,109623,103906
5448,109625,103907
5453,109629,103819
5458,109618,103815
5464,109637,103835
5469,109632,103863
5473,109630,103892
5478,109630,103885
5483,109628,103910
5488,109641,103897
5493,109642,103943
5498,109644,103923
5504,109645,103875
5509,109640,103865
5514,109630,103870
5519,109663,103898
5523,109659,103916
5528,109654,103930
5533,109650,103969
5538,109667,103997
5543,109663,103965
5549,109663,103904
5554,109658,103926
5559,109684,103907
5564,109668,103913
5567,109694,103938
5573,109682,103946
5578,109680,103960
5583,109672,103976
5588,109684,103971
5594,109701,103945
5599,109693,103915
5604,109705,103924
5607,109709,103947
5613,109697,104005
5618,109704,104001
5623,109706,103971
5628,109710,103974
5634,109713,103914
5639,109736,103949
5644,109715,103958
5647,109729,103964
5653,109730,103993
5658,109742,104022
5663,109744,103969
5668,109747,103971
5673,109740,103957
5679,109730,103968
5684,109742,103971
5688,109736,103987
5693,109726,104020
5698,109715,104025
5703,109708,103942
5708,109696,104002
5713,109693,103990
5719,109681,104008
5723,109674,103982
5728,109686,104041
5733,109674,104052
5738,109669,103986
5743,109676,103996
5748,109662,103987
5752,109652,103973
5758,109645,104033
5764,109641,103989
5769,109638,103924
5774,109634,103899
5777,109644,103901
5783,109626,103933
5788,109640,103862
5793,109639,103807
5798,109622,103788
5804,109629,103805
5808,109625,103789
5813,109619,103728
5818,109620,103721
5823,109636,103698
5828,109640,103710
5832,109617,103708
5838,109623,103702
5843,109610,103635
5849,109629,103667
5854,109615,103653
5857,109644,103655
5863,109628,103665
5868,109630,103624
5873,109642,103635
5878,109641,103643
5882,109612,103663
5889,109608,103674
5893,109621,103630
5898,109627,103633
5902,109623,103670
5908,109620,103629
5913,109610,103612
5918,109631,103656
5922,109643,103628
5928,109618,103646
5934,109621,103638
5939,109626,103640
5942,109622,103691
5948,109683,103642
5953,109645,103662
5957,109641,103681
5963,109660,103649
5968,109654,103681
5971,109631,103707
5978,109686,103657
5983,109651,103694
5987,109660,103732
5993,109747,103685
5998,109651,103719
6002,109686,103749
6008,109747,103704
6011,109660,103760
6018,109731,103743
6022,109659,103768
6028,109747,103766
6032,109686,103790
6038,109719,103796
6042,109719,103806
6048,109735,103790
6051,109722,103818
6059,109726,103825
6062,109732,103826
6068,109717,103831
6072,109746,103832
6078,109739,103846
6082,109725,103882
6088,109734,103832
6092,109740,103854
6096,109719,103852
6102,109712,103852
6107,109737,103838
6112,109724,103875
6117,109734,103868
6122,109720,103843
6127,109723,103865
6131,109738,103848
6136,109694,103845
6141,109688,103857
6147,109678,103873
6152,109651,103885
6157,109669,103865
6162,109653,103854
6167,109624,103842
6172,109629,103852
6176,109610,103878
6181,109621,103879
6187,109614,103865
6192,109628,103852
6197,109642,103861
6202,109626,103862
6207,109640,103861
6212,109634,103871
6216,109643,103859
6221,109671,103867
6226,109675,103871
6232,109648,103866
6237,109676,103859
6242,109725,103838
6247,109734,103860
6252,109717,103859
6257,109735,103878
6261,109749,103869
6266,109738,103869
6272,109763,103855
6277,109756,103869
6282,109768,103866
6287,109763,103872
6292,109771,103884
6297,109761,103886
6301,109761,103873
6306,109779,103869
6311,109750,103884
6317,109730,103901
6322,109719,103903
6327,109689,103890
6332,109661,103908
6337,109646,103893
6346,109567,103904
6358,109495,103898
6363,109477,103916
6368,109422,103878
6373,109338,103887
6376,109643,103896
6381,109343,103932
6386,109369,103946
6391,109351,103927
6396,109339,103940
6402,109352,103969
6407,109427,103995
6412,109371,103973
6417,109387,103968
6422,109313,103929
6427,109286,103920
6432,109303,103936
6436,109365,103947
6441,109374,103969
6447,109441,103965
6452,109455,103968
6457,109482,103965
6462,109521,103969
6467,109602,104011
6472,109590,104005
6477,109545,104005
6482,109494,103966
6488,109551,103953
6493,109554,103965
6496,109588,103971
6501,109609,104005
6506,109629,104024
6511,109649,104009
6516,109715,104002
6521,109758,104000
6526,109728,104015
6532,109687,104052
6537,109623,104041
6542,109594,104020
6547,109605,104004
6552,109627,103991
6557,109616,104002
6565,109648,104014
6571,109661,103933
6576,109632,103945
6581,109664,103984
6585,109671,103977
6590,109689,104032
6595,109690,104048
6600,109680,104041
6605,109711,104064
6610,109696,104155
6616,109680,104094
6621,109684,104087
6626,109643,104027
6631,109638,103960
6636,109644,103995
6639,109667,104005
6644,109671,104057
6649,109680,104073
6654,109679,104038
6660,109677,104096
6665,109698,104049
6670,109703,104127
6675,109691,104105
6680,109694,104114
6685,109657,104036
6690,109653,103941
6695,109659,103854
6700,109674,103887
6705,109676,103910
6710,109681,103887
6715,109664,103895
6720,109680,103851
6725,109703,103833
6730,109707,103836
6735,109699,103834
6739,109633,103849
6745,109619,103823
6750,109623,103773
6754,109654,103679
6759,109633,103715
6764,109664,103722
6769,109655,103699
6774,109653,103703
6779,109683,103700
6785,109667,103698
6790,109679,103700
6795,109661,103699
6800,109623,103738
6805,109608,103769
6810,109606,103736
6815,109613,103756
6818,109630,103646
6823,109646,103688
6829,109624,103696
6834,109631,103689
6839,109630,103690
6844,109633,103696
6849,109646,103688
6854,109642,103681
6859,109626,103707
6864,109604,103772
6870,109583,103773
6875,109593,103776
6879,109606,103780
6884,109600,103733
6889,109632,103752
6894,109628,103773
6899,109627,103739
6904,109635,103757
6909,109648,103769
6915,109634,103773
6920,109598,103790
6925,109557,103799
6930,109583,103835
6933,109596,103908
6938,109625,103827
6943,109631,103841
6948,109602,103845
6953,109612,103856
6959,109636,103848
6964,109643,103867
6969,109639,103909
6974,109605,103902
6979,109604,103886
6984,109569,103889
6989,109605,103905
6993,109612,103976
6999,109618,103899
7004,109598,103896
7009,109632,103878
7014,109628,103900
7019,109607,103902
7024,109645,103902
7029,109603,103902
7034,109574,103920
7040,109567,103922
7045,109583,103908
7048,109613,103925
7053,109612,103919
7058,109613,103914
7063,109620,103906
7068,109644,103909
7073,109643,103913
7078,109636,103909
7084,109647,103886
7089,109597,103905
7094,109595,103897
7099,109583,103898
7104,109586,103902
7108,109598,103894
7113,109622,103884
7118,109594,103886
7123,109617,103914
7129,109634,103907
7134,109635,103899
7139,109624,103892
7144,109628,103876
7149,109589,103899
7154,109584,103906
7159,109588,103899
7162,109604,103899
7168,109611,103912
7173,109640,103900
7178,109625,103889
7183,109634,103892
7188,109650,103894
7193,109679,103889
7198,109683,103901
7203,109638,103897
7208,109624,103899
7214,109599,103890
7219,109638,103904
7223,109654,103896
7228,109658,103906
7233,109669,103913
7238,109664,103910
7243,109682,103933
7248,109683,103916
7254,109695,103938
7258,109668,103926
7263,109647,103909
7268,109648,103922
7273,109655,103912
7277,109668,103922
7282,109678,103935
7287,109684,103951
7292,109684,103954
7298,109684,103943
7303,109700,103959
7308,109722,103946
7313,109701,103946
7318,109700,103951
7323,109668,103984
7328,109671,103976
7333,109679,103989
7337,109714,103943
7342,109697,103970
7347,109717,103976
7352,109717,103991
7357,109720,103972
7362,109754,103995
7367,109771,103981
7372,109745,103983
7377,109714,103994
7383,109708,104013
7388,109719,103985
7393,109715,103990
7397,109731,103982
7402,109734,103999
7407,109739,103999
7412,109750,103998
7417,109750,104003
7422,109744,104029
7428,109746,104046
7433,109718,104029
7438,109675,104016
7443,109645,104018
7448,109650,104037
7451,109665,104029
7456,109665,104027
7461,109680,104031
7467,109654,104035
7472,109647,104038
7477,109645,104059
7482,109663,104028
7487,109657,104028
7492,109587,104010
7497,109588,104016
7502,109554,103992
7507,109564,103992
7512,109568,103958
7517,109580,103945
7522,109580,103945
7527,109573,103893
7532,109556,103899
7537,109578,103862
7542,109588,103825
7547,109570,103823
7553,109525,103805
7558,109512,103787
7563,109520,103773
7566,109522,103770
7571,109536,103741
7576,109552,103744
7581,109526,103727
7586,109525,103715
7591,109536,103710
7597,109556,103701
7602,109524,103697
7607,109494,103698
7612,109463,103698
7617,109468,103689
7621,109482,103708
7626,109497,103699
7631,109494,103697
7636,109505,103660
7642,109479,103683
7647,109474,103707
7652,109501,103680
7657,109514,103691
7662,109468,103687
7667,109461,103704
7672,109451,103692
7677,109472,103719
7681,109486,103720
7686,109470,103718
7691,109486,103726
7696,109492,103718
7701,109484,103734
7706,109506,103724
7711,109526,103746
7716,109517,103747
7721,109475,103739
7727,109474,103750
7732,109475,103763
7737,109492,103771
7741,109484,103787
7746,109493,103790
7751,109492,103790
7756,109491,103794
7761,109494,103815
7767,109528,103822
7771,109522,103836
7776,109516,103834
7781,109492,103848
7786,109492,103841
7791,109480,103878
7796,109483,103869
7800,109505,103891
7805,109517,103884
7811,109521,103887
7816,109540,103903
7821,109513,103904
7826,109549,103910
7831,109558,103917
7836,109561,103894
7841,109549,103901
7846,109516,103925
7852,109491,103902
7857,109511,103904
7860,109527,103912
7865,109573,103918
7870,109553,103896
7875,109544,103918
7880,109564,103906
7885,109587,103902
7890,109599,103925
7896,109586,103894
7901,109560,103896
7906,109534,103913
7911,109514,103904
7916,109529,103921
7920,109529,103898
7925,109542,103917
7930,109541,103912
7936,109537,103906
7941,109561,103899
7946,109571,103934
7951,109576,103899
7956,109561,103905
7961,109542,103906
7966,109518,103896
7971,109532,103899
7974,109536,103901
7980,109564,103929
7985,109556,103912
7990,109556,103900
7995,109552,103897
8000,109605,103911
8005,109607,103909
8010,109608,103936
8015,109578,103911
8020,109558,103925
8026,109541,103940
8031,109557,103918
8035,109576,103911
8040,109573,103904
8045,109593,103947
8050,109584,103928
8055,109605,103934
8060,109621,103928
8066,109641,103927
8071,109607,103907
8076,109583,103923
8081,109553,103949
8086,109570,103943
8089,109590,103958
8094,109603,103964
8099,109623,103963
8104,109623,103961
8110,109601,103979
8115,109632,103956
8120,109618,104001
8125,109651,103957
8130,109643,103976
8135,109616,103979
8140,109597,103972
8145,109598,103986
8150,109626,103977
8155,109633,103977
8160,109648,103984
8165,109647,103993
8170,109653,103999
8175,109678,103984
8180,109697,104011
8185,109685,104003
8189,109647,103998
8195,109648,104019
8200,109614,104006
8205,109638,104016
8209,109636,104032
8214,109642,104013
8219,109640,104036
8224,109639,104054
8229,109627,104021
8235,109639,104046
8240,109649,104052
8245,109620,104037
8250,109581,104041
8255,109570,104047
8260,109531,104051
8265,109555,104046
8268,109564,104072
8273,109573,104034
8279,109548,104048
8284,109549,104032
8289,109547,104047
8294,109574,104000
8299,109577,103996
8304,109582,103942
8309,109537,103922
8314,109499,103917
8320,109489,103887
8325,109497,103869
8329,109517,103817
8334,109512,103838
8339,109508,103822
8344,109513,103792
8349,109526,103796
8354,109525,103771
8359,109548,103750
8365,109548,103764
8370,109489,103725
8375,109496,103722
8380,109465,103727
8385,109496,103688
8388,109521,103696
8393,109515,103709
8398,109501,103692
8403,109511,103696
8409,109520,103706
8414,109551,103698
8419,109542,103725
8424,109537,103698
8429,109481,103707
8434,109478,103693
8439,109485,103715
8444,109522,103666
8450,109522,103680
8454,109519,103681
8459,109526,103714
8464,109503,103709
8469,109557,103725
8474,109552,103752
8479,109562,103731
8484,109515,103735
8489,109495,103737
8495,109479,103736
8500,109505,103754
8504,109515,103721
8509,109516,103724
8514,109527,103759
8518,109533,103780
8523,109522,103782
8528,109548,103784
8534,109538,103792
8539,109562,103824
8544,109518,103823
8549,109504,103827
8554,109484,103859
8559,109492,103858
8564,109523,103840
8569,109530,103857
8574,109534,103849
8580,109540,103892
8583,109528,103898
8588,109541,103895
8593,109563,103899
8598,109562,103918
8603,109531,103945
8608,109525,103925
8613,109512,103939
8619,109523,103940
8624,109536,103947
8629,109551,103901
8634,109545,103932
8639,109555,103885
8644,109552,103912
8648,109555,103930
8653,109572,103937
8658,109570,103930
8664,109535,103933
8669,109511,103938
8674,109516,103951
8679,109548,104004
8684,109560,103971
8689,109548,103946
8694,109554,103939
8699,109552,103892
8705,109577,103918
8708,109582,103924
8713,109584,103926
8718,109542,103948
8723,109549,103929
8728,109523,103921
8733,109540,103927
8738,109570,103975
8743,109569,103938
8749,109581,103954
8754,109571,103925
8759,109596,103878
8764,109584,103885
8769,109599,103907
8773,109584,103908
8778,109571,103940
8783,109530,103970
8788,109542,103940
8794,109558,103935
8799,109573,103964
8804,109593,103990
8809,109587,103950
8814,109595,103938
8819,109611,103922
8824,109623,103901
8829,109616,103930
8833,109574,103942
8838,109562,103964
8843,109570,103977
8848,109572,103965
8853,109592,103969
8858,109592,103984
8863,109596,103961
8868,109611,103997
8873,109645,103980
8879,109635,103952
8884,109639,103896
8889,109635,103923
8894,109575,103965
8898,109562,103979
8903,109597,103981
8908,109615,103997
8913,109622,103986
8919,109625,103989
8924,109621,104022
8929,109648,104069
8934,109655,103995
8939,109674,104015
8944,109667,103969
8949,109594,103977
8952,109595,104007
8957,109599,104008
8963,109632,104006
8968,109635,104051
8973,109634,104032
8978,109635,104037
8983,109642,104065
8988,109642,104060
8993,109648,104060
8998,109659,104042
9004,109608,104020
9009,109572,103996
9014,109559,104032
9019,109555,104064
9023,109583,104056
9028,109590,104075
9033,109555,104073
9038,109554,104111
9043,109576,104094
9049,109576,104091
9053,109577,104135
9058,109556,104082
9063,109521,104046
9068,109509,104048
9073,109500,104016
9078,109520,104020
9082,109540,104008
9088,109517,103999
9093,109507,103985
9098,109518,103944
9103,109542,103931
9108,109529,103942
9113,109549,103908
9118,109529,103867
9123,109465,103873
9128,109463,103772
9134,109461,103803
9139,109475,103739
9144,109487,103743
9147,109489,103755
9152,109505,103749
9157,109501,103744
9162,109514,103747
9167,109510,103717
9172,109519,103720
9178,109503,103739
9183,109457,103735
9188,109449,103721
9193,109449,103651
9198,109482,103705
9203,109493,103661
9208,109510,103650
9212,109484,103719
9218,109484,103710
9223,109516,103705
9228,109516,103723
9233,109497,103700
9238,109477,103720
9243,109485,103745
9248,109477,103765
9253,109484,103726
9259,109497,103703
9264,109509,103695
9269,109491,103713
9272,109506,103732
9277,109511,103748
9282,109527,103743
9287,109517,103756
9292,109512,103777
9297,109481,103796
9303,109457,103807
9308,109463,103829
9313,109496,103835
9318,109501,103761
9323,109487,103755
9328,109496,103791
9333,109499,103824
9337,109493,103850
9342,109501,103857
9348,109502,103887
9353,109483,103878
9358,109437,103896
9363,109457,103915
9368,109493,103920
9373,109488,103951
9378,109483,103910
9383,109486,103890
9389,109505,103858
9394,109496,103903
9397,109510,103923
9402,109521,103936
9407,109476,103940
9412,109463,103936
9417,109470,103968
9422,109507,103960
9427,109504,103972
9433,109494,103964
9438,109513,103927
9443,109499,103926
9448,109518,103894
9453,109521,103936
9457,109503,103933
9462,109520,103951
9467,109486,103952
9473,109476,103949
9478,109481,103957
9483,109496,103978
9488,109530,103976
9493,109511,103963
9498,109527,103958
9503,109522,103945
9508,109525,103908
9513,109517,103924
9517,109522,103924
9522,109499,103938
9527,109487,103937
9532,109526,103942
9537,109531,103964
9542,109531,103965
9547,109544,103970
9552,109535,104011
9558,109541,103934
9563,109540,103927
9568,109547,103928
9573,109568,103902
9578,109556,103942
9582,109558,103943
9587,109515,103967
9592,109538,103946
9597,109551,103948
9603,109572,103958
9608,109573,103971
9613,109580,103985
9618,109575,104001
9623,109561,103944
9628,109564,103914
9633,109578,103952
9636,109597,103951
9641,109566,103980
9647,109583,103971
9652,109608,103955
9657,109602,103980
9662,109603,104004
9667,109603,104004
9672,109611,104014
9677,109604,104028
9682,109609,103976
9688,109606,103983
9693,109609,103948
9698,109603,103985
9702,109599,104011
9707,109585,103997
9712,109596,104004
9717,109619,104017
9722,109641,104020
9728,109610,104048
9733,109618,104081
9738,109618,104045
9743,109622,104039
9747,109626,104002
9752,109616,104017
9757,109629,104012
9761,109622,104047
9766,109629,104045
9772,109618,104055
9777,109612,104063
9782,109596,104078
9787,109613,104076
9792,109602,104088
9797,109587,104099
9802,109596,104101
9807,109568,104069
9812,109551,104067
9818,109560,104031
9823,109556,104060
9827,109552,104082
9831,109550,104098
9836,109537,104089
9841,109543,104114
9846,109528,104073
9851,109520,104086
9857,109509,104118
9862,109519,104044
9867,109502,104024
9872,109508,103950
9877,109509,103954
9881,109496,103935
9886,109505,103897
9891,109508,103892
9896,109504,103876
9902,109488,103842
9907,109488,103843
9912,109480,103803
9917,109475,103813
9922,109477,103797
9927,109470,103709
9932,109478,103732
9937,109476,103701
9943,109462,103705
9947,109458,103722
9952,109470,103724
9957,109441,103720
9962,109462,103695
9967,109463,103717
9972,109429,103724
9977,109439,103730
9982,109452,103728
9988,109459,103663
9993,109444,103678
9997,109454,103666
10001,109451,103680
10006,109446,103711
10011,109459,103702
10016,109466,103741
10021,109461,103772
10027,109465,103743
10032,109454,103728
10037,109462,103700
10042,109479,103706
10046,109481,103722
10051,109464,103730
10056,109469,103740
10061,109458,103789
10066,109471,103781
10072,109483,103783
10077,109478,103782
10082,109482,103761
10086,109473,103794
10091,109469,103812
10096,109455,103816
10101,109458,103837
10106,109462,103857
10112,109465,103870
10117,109458,103852
10122,109454,103811
10127,109450,103873
10131,109483,103899
10136,109469,103906
10141,109448,103913
10146,109456,103935
10151,109470,103958
10157,109451,103929
10162,109455,103947
10167,109474,103929
10171,109471,103940
10176,109455,103959
10181,109489,103958
10186,109453,103988
10191,109486,103994
10196,109499,104000
10202,109483,103960
10207,109505,103940
10212,109506,103974
10216,109492,103950
10221,109521,103971
10226,109503,103976
10231,109497,103990
10236,109505,104005
10242,109504,103984
10247,109511,103933
10252,109526,103936
10256,109523,103970
10261,109515,103972
10266,109527,103969
10271,109540,103990
10276,109531,103980
10281,109534,103976
10287,109552,103950
10292,109564,103939
10297,109574,103931
10301,109587,103964
10306,109572,103974
10311,109576,103959
10316,109571,104009
10321,109567,103995
10327,109579,103961
10332,109573,103954
10337,109580,103927
10341,109550,103945
10346,109567,103952
10351,109577,103971
10356,109575,103939
10361,109582,103983
10366,109594,103984
10372,109570,103917
10377,109566,103909
10382,109580,103953
10386,109587,103952
10391,109583,103968
10396,109568,103971
10401,109579,103984
10406,109563,104010
10412,109574,103992
10417,109562,103954
10422,109576,103940
10426,109566,103982
10431,109578,103986
10436,109583,103980
10441,109602,104015
10446,109571,104025
10451,109582,104035
10457,109566,103947
10462,109561,103945
10467,109588,103969
10471,109569,103987
10476,109573,103996
10481,109582,103996
10486,109570,104013
10491,109581,104037
10497,109580,104004
10502,109563,103978
10507,109569,103960
10511,109559,104006
10516,109569,104034
10521,109564,104005
10526,109558,104049
10531,109542,104049
10536,109551,104028
10542,109533,103996
10547,109518,104011
10550,109518,104045
10556,109514,104035
10561,109501,104020
10566,109488,104030
10571,109487,104095
10576,109456,104097
10582,109454,104026
10587,109445,103962
10592,109425,103983
10595,109422,104007
10600,109393,103989
10606,109388,103968
10611,109382,103967
10616,109372,104001
10621,109358,103906
10627,109364,103847
10632,109338,103824
10635,109342,103837
10640,109351,103818
10645,109350,103795
10651,109349,103815
10656,109347,103808
10661,109335,103758
10667,109336,103748
10672,109327,103690
10675,109345,103727
10680,109344,103706
10685,109356,103704
10690,109351,103695
10696,109347,103673
10701,109337,103699
10706,109348,103628
10712,109341,103650
10715,109352,103648
10720,109351,103680
10725,109365,103671
10730,109335,103662
10736,109334,103690
10741,109328,103680
10746,109346,103644
10752,109338,103626
10755,109338,103664
10760,109338,103679
10765,109345,103723
10770,109342,103699
10776,109349,103715
10781,109338,103678
10786,109329,103668
10791,109334,103637
10795,109318,103675
10800,109353,103697
10805,109335,103705
10810,109335,103682
10816,109333,103731
10821,109335,103722
10826,109320,103753
10831,109323,103666
10834,109326,103722
10840,109324,103734
10845,109307,103745
10850,109292,103753
10856,109302,103767
10861,109303,103811
10866,109288,103759
10871,109303,103758
10874,109289,103766
10880,109301,103786
10885,109276,103802
10890,109270,103799
10896,109262,103823
10901,109273,103840
10906,109252,103798
10911,109269,103800
10916,109268,103811
10919,109258,103810
10925,109243,103846
10930,109259,103829
10936,109252,103851
10941,109247,103893
10946,109253,103845
10951,109255,103813
10956,109260,103847
10959,109243,103859
10964,109246,103863
10970,109251,103867
10976,109247,103885
10981,109251,103881
10986,109246,103865
10991,109241,103860
10996,109264,103827
10999,109243,103869
11004,109258,103870
11010,109254,103859
11015,109254,103865
11020,109261,103899
11025,109257,103881
11031,109242,103848
11036,109266,103826
11039,109269,103839
11044,109267,103862
11049,109279,103871
11055,109275,103857
11060,109287,103892
11065,109287,103890
11070,109290,103860
11076,109291,103811
11081,109296,103854
11084,109302,103874
11089,109387,103877
11095,109298,103867
11100,109324,103904
11105,109312,103937
11110,109312,103922
11115,109317,103844
11120,109289,103834
11124,109316,103888
11129,109380,103933
11134,109300,103896
11140,109304,103934
11145,109308,103918
11150,109312,103913
11155,109316,103876
11160,109300,103891
11164,109324,103914
11169,109407,103921
11174,109333,103923
11180,109334,103938
11185,109316,103959
11190,109344,103940
11195,109310,103919
11200,109335,103910
11205,109350,103952
11209,109414,103936
11214,109396,103946
11219,109339,103946
11225,109352,103981
11230,109360,103977
11235,109344,103970
11240,109340,103977
11245,109394,103934
11249,109433,103968
11254,109407,103985
11259,109352,103986
11265,109343,104001
11270,109340,103995
11275,109343,104023
11280,109340,103998
11285,109346,103958
11290,109391,103993
11294,109346,104015
11299,109217,104034
11304,109287,104028
11310,109269,104039
11315,109269,104062
11320,109268,104065
11325,109295,103999
11330,109308,103998
11334,109311,104019
11339,109139,104036
11344,109225,104051
11350,109214,104023
11355,109209,104042
11360,109191,104029
11365,109193,103947
11370,109229,103920
11375,109231,103873
11379,109111,103866
11384,109104,103865
11389,109166,103853
11395,109167,103836
11400,109149,103835
11405,109177,103806
11410,109211,103737
11415,109191,103713
11420,109077,103746
11424,109077,103714
11429,109095,103734
11435,109122,103689
11440,109121,103706
11445,109158,103672
11450,109201,103649
11455,109176,103630
11460,109059,103630
11464,109059,103648
11469,109085,103632
11474,109132,103652
11480,109126,103641
11485,109155,103686
11490,109215,103669
11495,109218,103586
11500,109120,103633
11505,109064,103625
11509,109083,103652
11514,109087,103666
11520,109134,103668
11525,109122,103677
11530,109234,103698
11535,109215,103692
11540,109138,103644
11545,109070,103633
11549,109086,103682
11554,109123,103671
11559,109153,103690
11565,109149,103693
11570,109233,103735
11575,109223,103746
11580,109135,103715
11585,109079,103690
11590,109105,103732
11598,109173,103748
11603,109131,103706
11609,109151,103712
11613,109132,103759
11618,109149,103791
11623,109149,103813
11628,109183,103866
11633,109166,103866
11638,109157,103727
11643,109149,103768
11649,109119,103768
11653,109142,103811
11658,109170,103871
11663,109154,103851
11668,109155,103899
11673,109180,103921
11678,109190,103917
11683,109135,103813
11688,109122,103841
11694,109153,103846
11698,109165,103846
11703,109185,103903
11708,109190,103895
11713,109194,103990
11718,109212,103940
11723,109173,103851
11728,109161,103829
11734,109189,103846
11738,109194,103857
11743,109201,103899
11748,109209,103901
11753,109242,103885
11758,109234,104019
11763,109199,103957
11768,109157,103822
11773,109200,103870
11777,109223,103860
11782,109219,103881
11788,109202,103893
11793,109224,103900
11798,109247,103967
11803,109198,103934
11808,109177,103911
11813,109220,103819
11816,109217,103871
11822,109224,103916
11827,109221,103885
11832,109252,103890
11837,109266,103888
11843,109222,103969
11848,109214,103956
11853,109235,103794
11856,109245,103828
11862,109254,103883
11867,109261,103935
11872,109285,103900
11877,109285,103904
11882,109249,103955
11887,109229,103967
11891,109250,103872
11896,109261,103908
11901,109278,103918
11907,109288,103924
11912,109303,103908
11917,109311,103941
11922,109267,103954
11927,109259,103981
11932,109304,103949
11936,109282,103822
11941,109303,103927
11947,109297,103944
11952,109310,103951
11957,109318,103955
11962,109286,103953
11967,109260,104046
11972,109271,103989
11976,109315,103944
11981,109313,103968
11986,109309,103982
11992,109331,103969
11997,109319,103964
12002,109299,103980
12007,109271,104008
12012,109293,104019
12016,109296,104036
12021,109287,104000
12026,109289,103993
12032,109285,104022
12037,109281,104036
12042,109236,104027
12047,109212,104009
12052,109219,104093
12056,109235,104062
12061,109230,104016
12066,109213,104030
12071,109227,104024
12077,109237,104028
12082,109220,104016
12087,109181,104029
12092,109157,104014
12096,109191,104082
12101,109183,104040
12106,109182,103986
12111,109194,103966
12116,109200,103952
12122,109169,103933
12127,109157,103916
12132,109140,103882
12136,109168,103877
12141,109148,103842
12146,109153,103831
12151,109184,103810
12156,109194,103821
12162,109192,103773
12167,109142,103747
12172,109127,103742
12176,109130,103740
12181,109141,103733
12186,109147,103699
12191,109156,103697
12196,109169,103695
12201,109158,103708
12207,109120,103676
12212,109098,103677
12216,109119,103659
12221,109144,103663
12226,109142,103661
12231,109145,103668
12236,109177,103680
12241,109165,103675
12247,109113,103666
12252,109095,103670
12255,109126,103673
12261,109139,103686
12266,109132,103684
12271,109156,103726
12276,109155,103686
12281,109160,103708
12286,109105,103710
12292,109117,103709
12295,109135,103714
12300,109136,103716
12306,109154,103728
12311,109166,103734
12316,109191,103739
12321,109130,103746
12326,109107,103753
12332,109141,103759
12335,109166,103764
12340,109161,103779
12345,109145,103783
12350,109157,103807
12356,109178,103819
12361,109155,103808
12366,109105,103820
12371,109120,103846
12375,109157,103858
12380,109155,103873
12385,109159,103892
12390,109188,103890
12395,109203,103878
12400,109170,103895
12406,109118,103911
12411,109145,103908
12414,109156,103909
12420,109160,103954
12425,109171,103931
12430,109184,103933
12435,109192,103923
12440,109175,103940
12445,109128,103943
12450,109140,103930
12454,109179,103924
12460,109158,103947
12465,109191,103951
12470,109194,103952
12475,109207,103953
12480,109178,103940
12485,109144,103922
12490,109152,103956
12494,109191,103948
12499,109194,103968
12505,109210,103961
12510,109211,103977
12515,109231,103977
12520,109214,103961
12525,109188,103972
12530,109179,103955
12534,109191,103954
12539,109217,103952
12545,109214,103965
12550,109227,103969
12555,109240,103968
12560,109244,103947
12565,109195,103954
12570,109157,103955
12574,109199,103956
12579,109201,103979
12584,109222,103976
12590,109247,103956
12595,109258,103954
12600,109240,103954
12605,109175,103957
12610,109159,103965
12614,109201,103966
12619,109217,103947
12624,109221,103972
12630,109230,103966
12635,109248,103959
12640,109263,103986
12645,109209,103960
12650,109176,103981
12654,109230,103967
12659,109223,103970
12664,109230,103973
12669,109236,104013
12675,109264,103981
12680,109276,103988
12685,109222,104000
12690,109208,103993
12695,109234,103993
12699,109243,104005
12704,109259,104014
12709,109250,103995
12715,109270,104028
12720,109250,104025
12725,109217,104020
12730,109193,104022
12735,109208,104003
12739,109212,104013
12744,109203,104058
12749,109229,104034
12754,109222,104030
12760,109222,104038
12765,109165,104056
12770,109159,104036
12775,109146,104076
12779,109160,104047
12784,109153,104058
12789,109150,104054
12794,109171,104044
12800,109168,104059
12805,109118,104069
12810,109082,104063
12815,109107,104032
12818,109121,104014
12824,109140,103993
12829,109131,103975
12834,109150,103949
12839,109147,103906
12845,109121,103897
12850,109086,103871
12853,109097,103869
12858,109105,103832
12863,109126,103852
12869,109111,103809
12874,109136,103786
12879,109134,103781
12884,109090,103760
12890,109090,103771
12893,109104,103735
12898,109121,103726
12903,109129,103730
12908,109126,103727
12913,109151,103715
12918,109144,103712
12923,109112,103706
12930,109076,103721
12935,109130,103713
12938,109145,103714
12943,109145,103715
12948,109158,103699
12953,109178,103732
12958,109198,103692
12963,109159,103722
12968,109111,103713
12974,109152,103734
12978,109168,103738
12983,109169,103733
12988,109182,103730
12993,109208,103743
12998,109212,103733
13003,109171,103766
13008,109140,103776
13014,109162,103761
13018,109196,103779
13023,109190,103786
13028,109214,103830
13033,109226,103818
13038,109208,103828
13043,109175,103831
13048,109184,103845
13052,109198,103860
13058,109236,103898
13063,109238,103887
13069,109229,103902
13074,109200,103894
13079,109192,103918
13082,109203,103954
13088,109253,103965
13093,109260,103966
13099,109207,103964
13104,109177,103970
13109,109221,103983
13113,109240,103998
13118,109261,104001
13123,109245,104013
13128,109210,104004
13133,109201,104021
13137,109240,104020
13143,109287,104035
13148,109231,104022
13154,109234,104048
13157,109257,104059
13163,109298,104038
13168,109243,104042
13173,109246,104035
13177,109254,104071
13184,109255,104041
13189,109238,104047
13194,109256,104049
13197,109280,104055
13203,109262,104042
13208,109261,104040
13212,109292,104061
13218,109273,104065
13223,109278,104047
13227,109316,104047
13233,109261,104046
13238,109285,104042
13242,109317,104067
13248,109287,104055
13252,109315,104041
13258,109290,104041
13262,109318,104042
13268,109298,104042
13272,109336,104047
13278,109324,104048
13282,109331,104043
13287,109322,104064
13292,109333,104045
13297,109340,104032
13301,109335,104060
13306,109345,104056
13312,109371,104041
13317,109364,104055
13322,109377,104047
13327,109367,104074
13332,109380,104087
13337,109385,104042
13341,109404,104074
13346,109400,104062
13351,109406,104056
13357,109404,104076
13362,109397,104066
13367,109420,104065
13372,109405,104054
13377,109425,104077
13382,109436,104068
13386,109414,104087
13391,109428,104077
13396,109415,104075
13402,109431,104087
13407,109429,104107
13412,109437,104092
13417,109424,104106
13422,109421,104089
13426,109446,104112
13431,109431,104111
13436,109431,104110
13442,109424,104094
13447,109451,104106
13452,109441,104136
13457,109430,104133
13462,109419,104125
13467,109422,104139
13471,109425,104127
13476,109404,104145
13481,109406,104128
13487,109405,104148
13492,109403,104130
13497,109407,104140
13502,109401,104142
13507,109396,104172
13512,109394,104156
13516,109383,104135
13521,109381,104161
13527,109371,104136
13532,109390,104125
13537,109383,104097
13542,109361,104073
13547,109353,104067
13552,109340,104032
13556,109351,103993
13561,109324,103990
13566,109322,103950
13572,109310,103924
13577,109310,103933
13582,109307,103885
13587,109306,103871
13592,109310,103868
13597,109309,103840
13601,109302,103839
13606,109289,103810
13612,109290,103777
13617,109293,103782
13622,109297,103793
13627,109278,103778
13632,109300,103768
13637,109299,103775
13641,109270,103753
13646,109290,103771
13651,109314,103763
13657,109311,103757
13662,109324,103744
13667,109335,103767
13672,109328,103767
13677,109334,103758
13682,109337,103790
13686,109341,103789
13691,109339,103799
13697,109342,103783
13702,109354,103772
13707,109361,103806
13712,109346,103774
13717,109361,103783
13722,109347,103836
13726,109353,103830
13731,109358,103799
13736,109360,103844
13742,109360,103865
13747,109352,103844
13752,109369,103866
13757,109352,103833
13762,109361,103910
13767,109345,103887
13771,109346,103888
13776,109355,103926
13782,109362,103908
13787,109348,103937
13792,109356,103934
13797,109352,103966
13802,109354,103978
13807,109354,103997
13811,109349,104038
13816,109362,104001
13821,109361,104031
13827,109353,104024
13832,109356,104005
13837,109354,104007
13842,109355,103971
13847,109354,104023
13852,109371,104022
13856,109381,104047
13861,109369,104038
13867,109371,104035
13872,109375,104029
13877,109375,104032
13882,109375,104019
13887,109375,104045
13892,109372,104022
13896,109359,104048
13901,109363,104025
13906,109372,104043
13912,109389,104027
13917,109388,104034
13922,109379,104034
13927,109395,104024
13932,109391,104046
13937,109389,104042
13941,109395,104054
13946,109386,104034
13952,109397,104041
13957,109402,104032
13962,109378,104060
13967,109393,104045
13972,109392,104053
13977,109410,104062
13981,109402,104043
13986,109398,104048
13990,109413,104062
13996,109405,104063
14001,109410,104042
14006,109405,104042
14010,109415,104071
14015,109412,104070
14020,109418,104063
14025,109418,104065
14030,109406,104077
14035,109438,104070
14041,109418,104063
14046,109424,104073
14051,109416,104063
14055,109418,104082
14060,109423,104082
14065,109430,104078
14070,109433,104089
14075,109442,104098
14081,109443,104087
14086,109429,104074
14091,109428,104112
14095,109430,104107
14100,109435,104099
14105,109429,104101
14110,109428,104118
14115,109424,104118
14120,109402,104118
14126,109403,104124
14131,109394,104122
14136,109398,104125
14140,109366,104113
14145,109372,104120
14150,109371,104129
14155,109366,104129
14160,109369,104133
14166,109352,104176
14171,109341,104135
14176,109348,104145
14180,109350,104137
14185,109342,104142
14190,109335,104123
14195,109330,104104
14200,109335,104080
14205,109323,104068
14211,109330,104040
14216,109316,104009
14221,109315,104007
14225,109305,103968
14230,109311,103945
14235,109326,103943
14240,109322,103916
14245,109327,103885
14251,109321,103880
14256,109309,103852
14261,109306,103847
14265,109315,103828
14270,109315,103829
14275,109318,103808
14280,109311,103797
14285,109315,103792
14290,109317,103800
14296,109316,103787
14301,109324,103786
14306,109325,103768
14310,109307,103762
14315,109312,103789
14320,109308,103762
14325,109321,103769
14330,109328,103777
14336,109337,103772
14341,109338,103793
14346,109334,103791
14351,109332,103799
14355,109349,103780
14360,109347,103800
14365,109326,103801
14370,109326,103809
14375,109338,103810
14381,109331,103819
14386,109353,103817
14391,109347,103834
14395,109334,103829
14400,109348,103859
14405,109346,103869
14410,109346,103894
14415,109345,103861
14420,109356,103892
14426,109352,103909
14431,109348,103918
14436,109346,103955
14440,109355,103957
14445,109339,103963
14450,109351,103996
14455,109357,103970
14460,109345,104003
14466,109358,103995
14471,109355,104048
14476,109348,104026
14480,109340,104049
14485,109363,104026
14490,109357,104054
14495,109350,104071
14500,109360,104079
14505,109356,104066
14511,109360,104080
14516,109357,104083
14521,109368,104091
14525,109347,104094
14530,109372,104077
14535,109369,104104
14540,109377,104099
14545,109373,104115
14551,109374,104087
14556,109379,104100
14561,109379,104093
14565,109385,104097
14570,109374,104116
14575,109392,104105
14580,109370,104103
14585,109384,104103
14590,109377,104102
14596,109383,104132
14601,109396,104105
14606,109380,104102
14610,109379,104093
14615,109389,104127
14620,109393,104102
14625,109387,104118
14630,109407,104092
14636,109380,104123
14641,109388,104110
14646,109391,104101
14650,109385,104103
14655,109392,104125
14660,109394,104100
14665,109411,104087
14670,109409,104095
14675,109390,104113
14681,109389,104099
14686,109393,104097
14691,109407,104113
14695,109397,104127
14700,109424,104095
14705,109414,104092
14710,109414,104118
14715,109414,104111
14721,109409,104116
14726,109414,104103
14731,109419,104095
14735,109409,104108
14740,109426,104114
14745,109427,104118
14750,109411,104111
14755,109412,104111
14760,109426,104137
14766,109392,104115
14771,109409,104113
14776,109393,104117
14780,109389,104151
14785,109395,104119
14790,109369,104132
14795,109385,104123
14800,109354,104146
14806,109363,104136
14811,109342,104133
14816,109340,104126
14820,109353,104179
14825,109345,104149
14830,109357,104141
14835,109345,104148
14840,109356,104151
14845,109360,104115
14851,109384,104098
14856,109366,104057
14861,109398,104073
14865,109386,104051
14870,109406,104014
14875,109398,104000
14880,109390,103967
14885,109382,103947
14891,109377,103933
14896,109396,103907
14901,109371,103892
14905,109372,103856
14910,109360,103868
14915,109345,103841
14920,109354,103831
14925,109371,103815
14930,109358,103824
14936,109352,103799
14941,109334,103798
14946,109341,103793
14950,109329,103813
14955,109303,103782
14960,109313,103783
14965,109262,103766
14970,109285,103800
14976,109258,103781
14981,109250,103766
14986,109227,103774
14991,109221,103777
14995,109219,103795
15000,109234,103787
15005,109239,103780
15010,109252,103806
15015,109240,103807
15021,109254,103801
15026,109257,103823
15031,109248,103841
15035,109265,103845
15040,109254,103819
15045,109267,103829
15050,109281,103869
15055,109281,103861
15060,109371,103860
15066,109283,103858
15071,109286,103890
15076,109304,103919
15080,109306,103917
15085,109314,103926
15090,109278,103962
15095,109289,103945
15100,109289,103952
15106,109283,103966
15111,109286,103959
15116,109285,104004
15120,109279,104005
15125,109302,104022
15130,109290,104024
15135,109310,104039
15140,109301,104039
15145,109307,104058
15151,109317,104042
15165,109352,104109
15170,109348,104057
15175,109328,104062
15180,109330,104052
15183,109335,104082
15188,109341,104081
15194,109337,104098
15199,109327,104084
15204,109336,104098
15209,109346,104121
15215,109336,104094
15220,109356,104044
15225,109362,104113
15228,109363,104096
15234,109343,104103
15239,109358,104106
15244,109341,104104
15249,109354,104110
15254,109362,104115
15260,109364,104074
15265,109362,104106
15268,109357,104074
15273,109357,104101
15279,109360,104115
15284,109350,104154
15289,109374,104139
15294,109358,104112
15299,109385,104063
15305,109370,104078
15308,109381,104092
15313,109372,104099
15319,109385,104093
15324,109368,104095
15329,109375,104120
15334,109394,104093
15339,109406,104073
15344,109399,104062
15348,109400,104118
15353,109394,104093
15358,109396,104116
15364,109401,104105
15369,109394,104109
15374,109400,104103
15379,109407,104067
15384,109408,104078
15389,109380,104094
15393,109408,104110
15398,109401,104090
15404,109409,104107
15409,109381,104136
15414,109399,104113
15419,109397,104113
15424,109383,104123
15429,109374,104099
15433,109348,104114
15438,109357,104137
15443,109350,104125
15449,109344,104155
15454,109327,104151
15459,109332,104137
15464,109310,104140
15469,109308,104093
15473,109300,104137
15478,109307,104121
15483,109303,104111
15489,109297,104109
15494,109273,104129
15499,109294,104108
15504,109274,104073
15509,109275,103973
15514,109284,103982
15518,109280,103972
15523,109275,103952
15528,109287,103926
15534,109289,103927
15539,109259,103954
15544,109265,103899
15549,109274,103857
15554,109287,103811
15558,109279,103818
15563,109288,103822
15568,109251,103808
15574,109276,103809
15579,109267,103817
15584,109266,103852
15589,109259,103775
15594,109258,103749
15599,109267,103772
15603,109265,103769
15608,109266,103762
15613,109273,103766
15619,109283,103795
15624,109272,103789
15629,109296,103788
15634,109259,103774
15639,109281,103735
15643,109280,103767
15648,109272,103767
15653,109273,103800
15659,109278,103794
15664,109291,103804
15669,109287,103808
15674,109287,103795
15679,109278,103783
15684,109291,103787
15688,109288,103808
15693,109284,103848
15698,109298,103860
15704,109294,103861
15709,109279,103884
15714,109299,103893
15719,109307,103864
15724,109276,103864
15729,109276,103893
15733,109290,103923
15738,109294,103919
15744,109295,103946
15749,109302,103978
15754,109278,103963
15759,109296,103990
15764,109283,103960
15769,109285,103957
15773,109275,103998
15778,109284,104016
15783,109289,104004
15789,109294,104032
15794,109295,104062
15799,109289,104060
15804,109268,104028
15809,109288,104003
15814,109279,104041
15818,109282,104049
15823,109269,104060
15828,109296,104067
15834,109273,104097
15839,109294,104100
15844,109280,104030
15849,109294,104032
15854,109291,104033
15858,109303,104070
15863,109306,104082
15868,109310,104072
15874,109312,104103
15879,109311,104085
15884,109304,104124
15889,109307,104055
15894,109309,104038
15899,109304,104059
15903,109306,104075
15908,109303,104075
15913,109310,104070
15919,109298,104118
15924,109328,104074
15929,109328,104063
15934,109322,104032
15939,109331,104046
15942,109324,104070
15948,109344,104095
15953,109317,104076
15959,109339,104086
15964,109330,104114
15969,109338,104113
15974,109332,104052
15979,109355,104040
15982,109338,104071
15987,109356,104099
15993,109344,104070
15998,109338,104092
16004,109364,104111
16009,109359,104113
16014,109363,104040
16019,109358,104048
16022,109369,104077
16027,109351,104091
16032,109359,104112
16038,109374,104107
16044,109367,104145
16049,109368,104124
16054,109368,104129
16059,109367,104037
16064,109359,104114
16067,109353,104121
16072,109394,104110
16077,109370,104121
16083,109353,104168
16089,109341,104131
16094,109331,104138
16099,109334,104110
16104,109325,104115
16107,109318,104122
16112,109367,104136
16117,109299,104148
16122,109306,104178
16129,109289,104185
16134,109279,104161
16139,109284,104127
16144,109281,104114
16147,109273,104148
16152,109358,104111
16157,109248,104109
16162,109265,104101
16167,109243,104107
16174,109245,104057
16179,109251,103965
16184,109233,103957
16189,109255,103947
16192,109310,103954
16197,109305,103907
16202,109243,103907
16207,109227,103920
16212,109239,103879
16219,109231,103832
16224,109230,103841
16229,109249,103783
16232,109298,103799
16237,109265,103801
16242,109214,103797
16247,109228,103784
16252,109223,103841
16258,109231,103830
16263,109210,103771
16268,109227,103726
16272,109302,103772
16277,109279,103764
16282,109230,103767
16287,109212,103782
16292,109220,103797
16297,109231,103798
16303,109216,103784
16308,109234,103758
16313,109307,103744
16317,109293,103774
16322,109206,103784
16327,109231,103774
16332,109230,103815
16337,109232,103799
16343,109228,103820
16348,109243,103754
16353,109314,103787
16357,109290,103797
16362,109192,103830
16367,109248,103875
16372,109243,103881
16377,109249,103887
16382,109231,103898
16388,109241,103853
16393,109312,103869
16398,109293,103885
16402,109180,103913
16407,109191,103945
16412,109244,103934
16417,109254,103964
16422,109250,104009
16428,109272,104003
16433,109329,103916
16438,109298,103932
16442,109172,103991
16447,109186,104004
16452,109262,103992
16457,109241,104003
16462,109240,104047
16467,109246,104042
16473,109317,104013
16478,109288,103986
16483,109149,104010
16487,109180,104040
16492,109203,104033
16497,109262,104042
16502,109239,104068
16507,109269,104104
16513,109323,104099
16518,109314,104031
16523,109165,104022
16527,109192,104056
16532,109222,104068
16537,109268,104062
16542,109244,104070
16547,109258,104079
16552,109332,104120
16558,109306,104017
16563,109209,104051
16568,109193,104029
16572,109239,104080
16577,109240,104057
16582,109250,104069
16587,109267,104084
16592,109365,104066
16598,109332,104072
16603,109225,104049
16608,109205,104033
16613,109231,104074
16621,109250,104057
16626,109249,104033
16631,109251,104005
16635,109261,104058
16641,109289,104089
16646,109296,104095
16651,109302,104091
16656,109326,104108
16661,109304,104000
16666,109274,103984
16671,109262,104034
16675,109291,104042
16680,109290,104064
16686,109276,104065
16691,109320,104163
16696,109343,104151
16701,109322,104069
16706,109293,103977
16711,109269,103992
16715,109303,104033
16720,109310,104075
16726,109284,104110
16731,109325,104090
16736,109329,104188
16741,109322,104138
16746,109289,104098
16751,109245,104016
16755,109288,104061
16760,109290,104098
16765,109287,104104
16771,109283,104120
16776,109291,104123
16781,109279,104202
16786,109240,104171
16791,109195,104078
16796,109215,104055
16800,109217,104078
16805,109216,104129
16811,109209,104129
16816,109225,104134
16821,109215,104203
16826,109174,104180
16831,109148,104125
16835,109161,104049
16840,109174,104089
16845,109176,104093
16850,109172,104068
16856,109168,104025
16861,109180,104040
16866,109128,104039
16871,109109,104008
16874,109133,103858
16879,109143,103917
16884,109150,103907
16890,109137,103917
16896,109151,103879
16901,109157,103843
16906,109125,103897
16911,109076,103895
16914,109121,103813
16919,109134,103798
16924,109124,103795
16929,109140,103818
16935,109164,103776
16941,109142,103766
16946,109115,103816
16951,109066,103826
16954,109112,103806
16959,109129,103780
16964,109108,103756
16969,109116,103766
16974,109140,103752
16979,109155,103781
16985,109110,103759
16991,109063,103891
16994,109114,103832
16999,109122,103792
17004,109137,103776
17009,109141,103807
17014,109144,103793
17019,109146,103802
17025,109103,103799
17030,109084,103858
17034,109100,103889
17039,109146,103823
17044,109125,103809
17049,109133,103832
17054,109156,103839
17059,109143,103858
17064,109121,103860
17070,109098,103879
17075,109123,103949
17079,109148,103930
17084,109134,103907
17089,109130,103909
17094,109169,103915
17099,109146,103970
17104,109121,103927
17110,109088,103945
17114,109108,103983
17119,109137,103980
17124,109132,103980
17129,109132,103988
17134,109160,104001
17139,109154,104003
17144,109128,104036
17149,109099,104041
17154,109121,104026
17159,109133,104033
17164,109148,104025
17169,109145,104023
17174,109169,104032
17179,109165,104034
17184,109128,104048
17189,109113,104036
17195,109132,104059
17199,109155,104071
17204,109154,104047
17209,109172,104022
17214,109196,104029
17219,109208,104076
17224,109166,104051
17229,109127,104077
17234,109140,104076
17239,109155,104068
17244,109175,104043
17249,109163,104075
17254,109187,104075
17259,109206,104086
17264,109188,104082
17269,109146,104068
17274,109156,104031
17278,109154,104043
17284,109194,104054
17289,109166,104028
17294,109184,104034
17299,109208,104054
17304,109198,104065
17309,109169,104052
17314,109134,104037
17318,109164,104078
17324,109187,104058
17329,109183,104044
17334,109219,104041
17339,109225,104037
17344,109198,104061
17349,109156,104072
17354,109147,104067
17357,109191,104058
17363,109202,104047
17369,109187,104041
17374,109204,104062
17379,109222,104064
17384,109202,104080
17389,109186,104054
17394,109163,104062
17397,109182,104083
17402,109203,104075
17408,109217,104095
17413,109206,104067
17419,109251,104081
17424,109242,104085
17429,109167,104088
17434,109179,104111
17437,109225,104094
17442,109211,104107
17447,109208,104100
17453,109234,104111
17458,109251,104100
17463,109242,104109
17469,109204,104108
17474,109180,104105
17477,109189,104126
17482,109209,104114
17487,109195,104128
17492,109187,104120
17498,109209,104133
17503,109190,104159
17508,109141,104140
17513,109145,104138
17518,109140,104154
17522,109161,104141
17527,109127,104147
17532,109131,104177
17538,109153,104159
17543,109135,104145
17548,109111,104148
17553,109063,104158
17558,109081,104152
17562,109085,104116
17567,109094,104113
17572,109093,104082
17577,109108,104081
17583,109122,104024
17588,109059,104029
17593,109037,103984
17598,109064,103963
17602,109068,103952
17607,109075,103950
17612,109065,103899
17617,109101,103892
17623,109104,103860
17628,109077,103852
17633,109030,103843
17638,109038,103877
17642,109054,103817
17647,109059,103806
17652,109064,103786
17657,109088,103784
17662,109101,103779
17668,109078,103782
17673,109047,103784
17678,109047,103762
17682,109049,103749
17687,109059,103755
17692,109051,103757
17697,109076,103780
17702,109091,103741
17708,109089,103754
17713,109037,103764
17718,109004,103763
17722,109052,103766
17727,109062,103792
17732,109074,103795
17737,109074,103787
17742,109092,103777
17747,109104,103796
17753,109057,103810
17758,109043,103827
17763,109070,103836
17767,109068,103830
17772,109084,103823
17777,109076,103830
17782,109109,103868
17787,109115,103847
17793,109073,103868
17798,109043,103867
17803,109082,103874
17807,109087,103880
17812,109103,103919
17817,109081,103917
17822,109104,103919
17827,109114,103971
17832,109065,103957
17838,109056,103950
17841,109076,103947
17847,109092,103996
17852,109100,103982
17857,109102,103995
17862,109131,104012
17867,109126,104003
17872,109083,104010
17878,109053,104027
17881,109111,104043
17886,109108,104035
17891,109115,104034
17896,109115,104037
17902,109138,104022
17907,109150,104039
17912,109105,104046
17917,109084,104038
17921,109116,104068
17926,109121,104046
17931,109134,104053
17936,109139,104067
17941,109149,104066
17946,109161,104040
17951,109128,104064
17957,109104,104057
17960,109136,104064
17966,109153,104044
17971,109161,104067
17976,109159,104053
17981,109177,104061
17986,109165,104065
17991,109159,104067
17996,109140,104059
18001,109135,104076
18006,109163,104087
18011,109165,104087
18016,109179,104053
18021,109211,104041
18026,109208,104044
18031,109157,104091
18036,109136,104060
18041,109153,104066
18045,109186,104075
18051,109190,104071
18056,109210,104047
18061,109230,104055
18066,109233,104062
18071,109197,104087
18076,109184,104064
18081,109191,104052
18085,109212,104070
18091,109216,104059
18096,109230,104074
18101,109230,104055
18106,109255,104084
18111,109223,104098
18116,109210,104059
18121,109208,104072
18125,109216,104077
18130,109227,104076
18136,109228,104070
18141,109258,104081
18146,109278,104085
18151,109260,104087
18156,109225,104096
18161,109214,104093
18165,109233,104116
18170,109251,104140
18176,109266,104119
18181,109250,104103
18186,109305,104103
18191,109278,104111
18196,109243,104096
18201,109239,104137
18205,109253,104104
18210,109269,104113
18215,109295,104133
18221,109275,104138
18226,109299,104126
18231,109304,104122
18236,109257,104135
18241,109232,104140
18245,109254,104141
18250,109264,104150
18255,109264,104174
18260,109249,104139
18266,109281,104156
18271,109270,104148
18276,109215,104180
18281,109185,104183
18285,109200,104170
18290,109212,104177
18295,109198,104167
18300,109203,104183
18306,109212,104169
18311,109214,104183
18316,109166,104188
18321,109151,104183
18324,109157,104179
18330,109174,104144
18335,109176,104157
18340,109169,104143
18345,109200,104112
18351,109169,104077
18356,109149,104054
18361,109111,104028
18364,109133,103986
18369,109146,103988
18374,109149,103945
18380,109161,103932
18385,109178,103902
18391,109180,103882
18396,109128,103875
18401,109106,103854
18404,109130,103823
18409,109151,103830
18414,109136,103808
18419,109150,103793
18424,109184,103813
18429,109167,103808
18436,109125,103781
18441,109094,103770
18444,109126,103755
18449,109150,103776
18454,109160,103769
18459,109157,103759
18464,109175,103756
18469,109171,103757
18475,109146,103767
18480,109115,103763
18486,109130,103774
18489,109154,103762
18494,109167,103768
18499,109162,103769
18504,109209,103775
18509,109213,103777
18514,109152,103820
18520,109140,103830
18525,109158,103767
18529,109174,103789
18534,109202,103832
18539,109192,103805
18544,109219,103818
18549,109206,103831
18554,109159,103855
18560,109166,103877
18565,109194,103823
18569,109214,103868
18574,109193,103912
18579,109217,103901
18584,109241,103901
18589,109225,103919
18594,109179,103941
18599,109165,103930
18605,109184,103928
18610,109212,103937
18614,109198,103962
18619,109198,103988
18624,109221,103983
18629,109227,103998
18634,109187,103998
18639,109175,104027
18644,109210,104001
18650,109204,103988
18655,109219,104028
18659,109212,104018
18664,109259,104025
18669,109266,104017
18674,109200,104042
18679,109170,104040
18684,109186,104052
18690,109211,104041
18695,109235,104028
18699,109226,104033
18704,109241,104085
18709,109277,104063
18714,109211,104052
18719,109192,104067
18724,109201,104069
18729,109227,104022
18735,109228,104016
18740,109237,104042
18744,109264,104041
18749,109259,104075
18754,109245,104055
18759,109191,104058
18764,109221,104049
18769,109244,104036
18775,109264,104045
18780,109240,104015
18784,109272,104042
18789,109291,104045
18794,109278,104047
18799,109237,104044
18804,109226,104038
18809,109263,104063
18814,109259,104056
18820,109256,103996
18825,109279,104025
18829,109288,104055
18834,109275,104055
18839,109250,104067
18844,109227,104063
18849,109271,104082
18854,109284,104062
18860,109273,104052
18865,109267,103981
18870,109302,104069
18874,109311,104061
18879,109258,104061
18884,109250,104064
18889,109280,104077
18894,109284,104078
18899,109274,104105
18905,109293,104029
18910,109290,104015
18914,109311,104062
18919,109281,104079
18924,109258,104082
18929,109269,104066
18934,109302,104094
18939,109298,104133
18945,109324,104057
18950,109315,104047
18955,109333,104062
18958,109294,104070
18964,109290,104102
18969,109305,104100
18974,109311,104136
18979,109310,104144
18984,109360,104133
18990,109371,104098
18995,109328,104064
18998,109287,104125
19003,109282,104143
19008,109309,104131
19014,109299,104148
19019,109312,104145
19024,109325,104172
19030,109310,104117
19035,109277,104118
19040,109238,104144
19043,109234,104152
19048,109241,104144
19053,109249,104167
19059,109239,104169
19064,109255,104199
19069,109264,104161
19075,109234,104104
19080,109166,104135
19083,109193,104125
19088,109209,104123
19093,109199,104091
19098,109190,104104
19104,109219,104100
19109,109208,104075
19115,109166,103993
19120,109150,103971
19123,109173,103987
19128,109188,103945
19133,109175,103915
19138,109181,103915
19143,109204,103899
19149,109207,103903
19154,109146,103819
19160,109131,103824
19163,109149,103806
19168,109178,103818
19173,109171,103796
19178,109171,103796
19183,109220,103788
19188,109192,103839
19194,109160,103745
19200,109140,103740
19205,109165,103732
19208,109160,103779
19213,109160,103783
19218,109181,103755
19223,109220,103766
19228,109183,103810
19233,109152,103771
19238,109160,103746
19245,109160,103749
19248,109164,103808
19253,109173,103765
19258,109215,103785
19263,109222,103771
19268,109206,103798
19273,109146,103847
19278,109161,103754
19283,109189,103786
19289,109192,103803
19293,109190,103816
19298,109205,103831
19303,109228,103825
19308,109211,103873
19313,109164,103872
19318,109177,103892
19323,109192,103843
19329,109195,103844
19333,109193,103891
19338,109212,103892
19343,109222,103907
19348,109172,103924
19353,109150,103950
19358,109197,103926
19363,109187,103906
19368,109210,103931
19373,109201,103950
19378,109226,103976
19383,109192,103983
19388,109150,104014
19393,109194,103989
19398,109214,103973
19404,109208,103983
19407,109204,104003
19414,109198,104028
19419,109174,104029
19424,109197,104029
19429,109214,104012
19434,109217,103944
19439,109216,104017
19442,109216,104024
19448,109204,104038
19453,109194,104045
19459,109219,104056
19464,109218,104038
19469,109226,104023
19474,109219,104047
19478,109229,104038
19483,109190,104060
19488,109225,104066
19493,109246,104048
19499,109233,104006
19504,109244,103989
19509,109239,104043
19513,109238,104038
19518,109212,104078
19523,109250,104073
19528,109242,104062
19533,109249,104008
19538,109247,103999
19543,109256,104022
19548,109254,104055
19553,109263,104066
19558,109271,104019
19563,109255,104009
19568,109263,104011
19572,109277,104029
19578,109260,104051
19584,109245,104068
19589,109265,104022
19594,109270,104023
19599,109264,104019
19602,109281,104054
19608,109266,104060
19613,109287,104065
19618,109283,104062
19623,109284,104010
19628,109284,104056
19633,109290,104081
19638,109294,104097
19643,109290,104019
19648,109285,104054
19652,109284,104051
19658,109303,104066
19663,109293,104054
19668,109303,104006
19674,109294,104044
19678,109322,104068
19683,109313,104111
19688,109321,104074
19693,109313,104056
19698,109310,104088
19702,109304,104092
19708,109312,104101
19714,109326,104071
19719,109323,104067
19722,109323,104097
19728,109327,104128
19733,109313,104123
19738,109339,104088
19742,109315,104120
19748,109346,104185
19753,109337,104087
19759,109322,104091
19762,109319,104122
19768,109320,104110
19773,109324,104108
19778,109295,104114
19782,109297,104136
19788,109273,104164
19793,109271,104115
19799,109272,104155
19803,109267,104156
19808,109238,104162
19813,109254,104140
19818,109248,104181
19822,109242,104184
19828,109244,104155
19833,109222,104131
19837,109221,104166
19843,109226,104124
19848,109208,104105
19852,109191,104131
19858,109208,104073
19863,109209,104031
19867,109185,104048
19873,109194,104001
19878,109183,103968
19881,109178,103969
19888,109175,103881
19893,109172,103886
19897,109172,103921
19903,109190,103835
19908,109174,103852
19912,109182,103839
19918,109146,103798
19923,109164,103813
19927,109165,103819
19933,109159,103771
19937,109169,103792
19943,109170,103751
19947,109168,103757
19953,109180,103730
19957,109161,103757
19963,109177,103737
19966,109168,103730
19973,109160,103754
19977,109179,103741
19983,109175,103703
19987,109163,103743
19993,109187,103730
19997,109179,103763
20003,109184,103735
20006,109178,103761
20013,109186,103765
20017,109186,103760
20023,109204,103765
20027,109196,103782
20033,109194,103772
20037,109198,103781
20041,109201,103792
20046,109188,103795
20051,109199,103789
20057,109204,103802
20062,109203,103807
20067,109212,103839
20072,109210,103838
20077,109217,103832
20082,109210,103856
20086,109213,103863
20091,109186,103882
20097,109190,103883
20102,109188,103890
20107,109192,103903
20112,109194,103917
20117,109191,103911
20122,109201,103924
20126,109199,103964
20131,109184,103938
20136,109191,103970
20142,109202,103996
20147,109197,103975
20152,109197,103983
20157,109191,104002
20162,109195,104013
20167,109185,103992
20171,109186,104027
20176,109198,103992
20182,109192,104015
20187,109192,104018
20192,109201,104018
20197,109205,104026
20202,109205,104032
20207,109201,104032
20211,109194,104041
20216,109190,104037
20221,109200,104042
20227,109215,104032
20232,109210,104023
20237,109199,104043
20242,109199,104036
20247,109217,104038
20252,109211,104032
20256,109222,104034
20261,109226,104033
20267,109226,104034
20272,109232,104033
20277,109215,104027
20282,109230,104011
20287,109228,104018
20292,109229,104018
20296,109230,104048
20301,109250,104012
20306,109235,104018
20312,109242,104021
20317,109232,104045
20322,109235,104034
20327,109236,104025
20332,109253,104039
20337,109253,104044
20341,109241,104035
20346,109248,104047
20352,109250,104024
20357,109266,104056
20362,109260,104027
20367,109255,104026
20372,109262,104050
20377,109259,104021
20381,109270,104019
20386,109271,104025
20391,109270,104013
20397,109262,104067
20402,109273,104087
20407,109269,104054
20412,109270,104082
20417,109277,104073
20422,109267,104082
20426,109271,104081
20431,109280,104093
20436,109293,104093
20442,109284,104092
20447,109270,104091
20452,109293,104093
20457,109276,104095
20462,109289,104115
20466,109291,104133
20471,109292,104116
20476,109302,104109
20482,109306,104114
20487,109283,104102
20492,109300,104115
20497,109317,104087
20502,109313,104125
20507,109309,104114
20511,109306,104133
20516,109311,104132
20521,109309,104127
20527,109308,104155
20532,109297,104161
20537,109290,104187
20542,109290,104162
20547,109266,104125
20551,109271,104156
20556,109269,104217
20561,109251,104168
20567,109247,104179
20572,109239,104171
20577,109226,104212
20582,109231,104184
20587,109226,104164
20592,109201,104219
20596,109208,104170
20601,109176,104163
20606,109188,104116
20612,109169,104143
20617,109174,104108
20622,109180,104094
20627,109168,104067
20632,109177,104059
20636,109167,104009
20641,109147,103990
20646,109141,103953
20652,109139,103942
20657,109162,103921
20662,109158,103874
20667,109165,103890
20672,109156,103860
20677,109167,103815
20681,109170,103811
20686,109187,103792
20691,109178,103771
20697,109211,103759
20702,109194,103737
20707,109226,103773
20712,109220,103727
20717,109213,103755
20722,109219,103730
20726,109205,103737
20731,109206,103711
20737,109216,103710
20742,109206,103733
20747,109203,103712
20752,109176,103720
20757,109205,103744
20762,109198,103734
20766,109207,103689
20771,109189,103728
20776,109201,103733
20782,109186,103757
20787,109173,103733
20792,109167,103705
20797,109161,103726
20802,109146,103743
20807,109152,103720
20811,109118,103751
20816,109093,103758
20822,109073,103776
20827,109063,103778
20832,109072,103758
20837,109057,103792
20842,109071,103805
20847,109094,103805
20851,109078,103816
20856,109087,103846
20861,109103,103828
20867,109096,103861
20872,109107,103866
20877,109099,103872
20882,109093,103898
20887,109107,103890
20892,109103,103912
20896,109216,103955
20901,109098,103935
20907,109132,103918
20912,109120,103956
20917,109134,103966
20922,109136,103970
20927,109117,103969
20932,109120,103959
20936,109129,103987
20941,109140,103957
20946,109148,103986
20951,109137,103990
20956,109126,103990
20961,109143,103997
20965,109163,103999
20970,109147,104032
20975,109146,103994
20980,109164,104002
20996,109193,104062
21001,109183,104032
21006,109178,104037
21011,109180,104002
21016,109182,103989
21021,109163,103988
21025,109175,104027
21030,109181,104010
21036,109183,104015
21041,109182,104033
21046,109185,104016
21051,109186,104007
21056,109183,103968
21061,109193,103985
21065,109179,103999
21070,109196,104005
21075,109195,104012
21081,109197,104010
21086,109193,104049
21091,109210,104056
21096,109195,104010
21101,109197,103964
21106,109208,104008
21110,109190,104011
21115,109281,104023
21121,109201,104020
21126,109203,104020
21131,109215,104075
21136,109211,104019
21141,109223,104014
21146,109204,103979
21150,109239,104027
21155,109265,104024
21160,109226,104041
21166,109217,104028
21171,109202,104048
21176,109227,104046
21181,109219,104036
21186,109225,103988
21191,109234,104014
21195,109276,104071
21200,109314,104043
21206,109245,104075
21211,109243,104059
21216,109259,104081
21221,109242,104076
21226,109251,104029
21231,109235,104025
21235,109260,104072
21240,109319,104067
21245,109235,104081
21251,109252,104099
21256,109233,104140
21261,109251,104143
21266,109251,104069
21271,109239,104051
21276,109247,104074
21280,109297,104099
21285,109297,104113
21291,109256,104104
21296,109247,104121
21301,109261,104129
21306,109251,104127
21311,109244,104099
21316,109265,104071
21320,109288,104132
21325,109270,104119
21330,109210,104126
21336,109209,104148
21341,109202,104132
21346,109204,104148
21351,109194,104119
21356,109221,104100
21361,109260,104149
21365,109209,104138
21370,109066,104143
21376,109145,104126
21381,109144,104149
21386,109135,104168
21391,109133,104095
21396,109155,104036
21401,109192,104009
21405,109153,104040
21410,109025,104000
21415,109112,103963
21421,109121,103982
21426,109084,103969
21431,109090,103939
21436,109166,103859
21441,109169,103824
21446,109118,103828
21449,109007,103827
21455,109024,103814
21460,109100,103807
21466,109101,103840
21471,109091,103842
21476,109161,103753
21481,109149,103743
21486,109065,103731
21489,109011,103762
21494,109209,103743
21500,109079,103737
21506,109079,103756
21511,109065,103802
21516,109144,103758
21521,109135,103715
21526,109063,103691
21529,109005,103725
21534,109027,103730
21539,109073,103747
21545,109075,103767
21551,109079,103785
21556,109154,103768
21561,109151,103746
21566,109076,103735
21569,109032,103772
21574,109057,103752
21579,109090,103775
21584,109088,103748
21591,109124,103765
21596,109164,103817
21601,109125,103772
21606,109008,103764
21609,109010,103807
21614,109065,103822
21619,109100,103842
21624,109103,103841
21630,109157,103872
21636,109148,103840
21641,109082,103851
21646,109009,103822
21651,109035,103852
21654,109040,103876
21659,109082,103897
21664,109090,103894
21669,109154,103946
21675,109175,103927
21680,109087,103965
21686,108999,103887
21691,109005,103910
21699,109094,103946
21704,109068,103871
21709,109058,103927
21712,109082,103933
21718,109094,103992
21724,109083,104008
21729,109122,104059
21734,109135,104018
21739,109136,103934
21744,109073,103888
21749,109092,103920
21752,109098,103942
21757,109112,103976
21763,109115,103993
21769,109125,104017
21774,109161,104062
21779,109136,104031
21784,109086,103902
21789,109067,103955
21792,109112,103941
21797,109131,103984
21803,109118,103994
21808,109111,103988
21813,109148,104026
21818,109137,104049
21823,109112,103992
21829,109091,103904
21832,109114,103906
21837,109135,103990
21842,109145,103974
21848,109133,103977
21853,109162,103992
21858,109164,104058
21863,109120,104060
21868,109088,103920
21872,109122,103903
21877,109154,103997
21882,109154,103982
21888,109151,103978
21893,109173,103977
21898,109175,104074
21903,109155,104030
21908,109130,103987
21912,109153,103913
21917,109172,103980
21922,109168,103985
21927,109183,103995
21933,109207,103986
21938,109197,104056
21943,109157,104046
21948,109137,104085
21952,109163,103956
21957,109169,104014
21962,109168,104013
21967,109174,104008
21972,109205,104009
21978,109198,104017
21983,109159,104081
21988,109155,104111
21992,109178,104062
21997,109189,104030
22002,109202,104034
22007,109188,104027
22012,109206,104047
22018,109239,104048
22023,109180,104027
22028,109151,104141
22033,109185,104109
22037,109204,104044
22042,109214,104037
22047,109201,104060
22052,109240,104060
22057,109260,104077
22063,109219,104057
22068,109211,104090
22073,109191,104130
22077,109209,104140
22082,109202,104078
22087,109223,104072
22092,109244,104072
22097,109255,104081
22103,109212,104090
22108,109171,104098
22113,109159,104156
22117,109185,104155
22122,109168,104105
22127,109165,104106
22132,109178,104118
22137,109181,104118
22142,109141,104127
22148,109127,104136
22153,109102,104129
22157,109109,104236
22162,109112,104123
22167,109105,104147
22172,109114,104106
22177,109136,104098
22182,109101,104073
22188,109067,104059
22193,109067,104060
22196,109085,104053
22202,109072,103977
22207,109056,103968
22212,109104,103947
22217,109109,103901
22222,109082,103908
22227,109044,103873
22233,109027,103870
22236,109052,103857
22241,109049,103825
22246,109059,103817
22251,109087,103782
22257,109099,103763
22262,109090,103757
22267,109036,103731
22273,109027,103751
22276,109051,103745
22281,109064,103724
22286,109055,103728
22291,109062,103707
22296,109071,103727
22301,109062,103711
22306,109030,103702
22311,109028,103738
22316,109053,103705
22321,109057,103708
22326,109054,103718
22331,109060,103727
22336,109066,103718
22341,109086,103726
22346,109065,103725
22351,109023,103735
22356,109038,103715
22361,109063,103741
22366,109076,103766
22371,109073,103752
22376,109084,103752
22381,109095,103735
22386,109072,103746
22391,109030,103784
22396,109063,103766
22401,109080,103800
22406,109081,103798
22411,109078,103792
22416,109101,103808
22421,109104,103824
22426,109064,103837
22431,109033,103848
22436,109047,103865
22440,109081,103861
22446,109078,103876
22451,109064,103868
22456,109101,103876
22461,109108,103904
22466,109056,103876
22471,109056,103907
22476,109049,103921
22480,109075,103948
22486,109074,103910
22491,109080,103944
22496,109101,103954
22501,109099,103948
22506,109076,103970
22511,109052,103933
22516,109061,103946
22520,109081,103952
22525,109098,103964
22531,109095,103937
22536,109107,103974
22541,109127,103984
22546,109114,103965
22551,109081,103961
22556,109059,103956
22560,109079,103984
22565,109098,103974
22571,109100,103976
22576,109137,103975
22581,109157,103967
22586,109125,103955
22591,109096,103959
22596,109080,103947
22600,109092,103968
22605,109108,103960
22610,109114,103986
22616,109135,103951
22621,109124,103957
22626,109160,103961
22631,109105,103965
22636,109108,103977
22641,109101,103941
22645,109101,103941
22650,109123,103974
22656,109123,103954
22661,109156,103948
22666,109159,103958
22671,109103,103957
22676,109091,103975
22679,109124,103974
22684,109149,103957
22690,109148,103971
22695,109162,103962
22701,109166,103974
22706,109176,103959
22711,109135,103965
22716,109130,103961
22719,109144,103959
22724,109158,103971
22729,109145,103966
22735,109186,103973
22740,109204,104013
22746,109175,103986
22751,109140,103973
22756,109143,103981
22759,109160,103981
22764,109172,103970
22770,109185,103968
22775,109200,104026
22780,109202,103999
22786,109184,104005
22791,109142,104007
22796,109187,104007
22799,109192,104006
22804,109214,104020
22809,109210,104010
22814,109232,104005
22819,109253,104018
22824,109204,104051
22831,109154,104034
22836,109198,104039
22839,109195,104040
22844,109219,104056
22849,109215,104034
22854,109224,104033
22859,109266,104063
22864,109242,104033
22870,109199,104040
22875,109208,104075
22879,109210,104067
22884,109221,104068
22889,109237,104065
22894,109219,104063
22899,109234,104071
22904,109250,104086
22909,109179,104087
22915,109170,104082
22920,109188,104089
22924,109190,104085
22929,109189,104097
22934,109156,104082
22939,109180,104097
22944,109174,104115
22949,109141,104120
22955,109123,104098
22960,109122,104095
22964,109110,104092
22969,109135,104085
22974,109123,104105
22979,109123,104072
22984,109143,104060
22989,109113,104034
22994,109064,104016
23000,109068,104007
23004,109104,103967
23009,109090,103953
23014,109081,103923
23019,109110,103891
23024,109122,103877
23029,109117,103870
23034,109062,103835
23040,109052,103819
23044,109070,103799
23049,109090,103789
23054,109102,103779
23059,109098,103767
23064,109128,103761
23069,109098,103733
23074,109070,103723
23079,109064,103726
23084,109078,103714
23089,109083,103708
23094,109089,103704
23099,109120,103714
23104,109117,103691
23109,109114,103721
23114,109101,103736
23119,109069,103707
23123,109095,103683
23129,109113,103690
23134,109100,103699
23139,109147,103709
23144,109153,103705
23149,109114,103714
23154,109091,103714
23159,109083,103754
23163,109105,103739
23169,109124,103730
23174,109113,103743
23179,109136,103759
23184,109131,103764
23189,109119,103782
23194,109102,103786
23199,109076,103782
23202,109111,103791
23207,109118,103790
23214,109109,103829
23219,109122,103827
23224,109139,103823
23229,109126,103830
23234,109104,103849
23239,109089,103861
23242,109123,103871
23247,109120,103886
23252,109133,103890
23258,109137,103922
23263,109167,103922
23269,109151,103921
23274,109119,103933
23279,109099,103934
23282,109145,103928
23287,109138,103945
23292,109160,103942
23298,109175,103950
23303,109178,103972
23308,109159,103982
23313,109144,103976
23319,109126,103968
23322,109152,103989
23327,109160,103990
23332,109161,103967
23337,109191,103995
23343,109190,103988
23348,109170,103987
23353,109151,103986
23358,109126,103988
23362,109159,103994
23367,109170,103985
23372,109165,103975
23377,109179,103978
23383,109212,103968
23388,109178,103991
23393,109157,103981
23398,109138,103969
23402,109158,103983
23407,109169,103996
23412,109181,103985
23417,109207,103962
23422,109217,103979
23428,109209,103987
23433,109171,103972
23438,109134,103983
23442,109163,104001
23447,109185,103953
23452,109183,103960
23457,109213,103989
23462,109222,103998
23468,109202,103964
23473,109160,103970
23478,109138,103981
23482,109181,103973
23487,109180,103982
23492,109197,103984
23497,109197,103980
23502,109220,103974
23507,109236,104014
23513,109156,104004
23518,109166,103999
23522,109181,103981
23527,109185,103980
23532,109192,104005
23537,109200,103989
23542,109217,104002
23547,109222,104008
23553,109195,104026
23558,109157,104011
23562,109193,104015
23567,109230,104021
23572,109221,104032
23577,109214,104014
23582,109236,104004
23587,109254,104018
23592,109212,104017
23598,109169,104022
23603,109207,104071
23607,109233,104030
23612,109225,104038
23617,109232,104047
23622,109264,104036
23627,109283,104066
23632,109224,104062
23638,109184,104050
23643,109208,104059
23647,109239,104029
23652,109231,104069
23657,109238,104088
23662,109275,104082
23667,109269,104073
23672,109223,104080
23677,109211,104096
23683,109221,104069
23688,109247,104045
23692,109245,104100
23697,109245,104101
23702,109261,104105
23707,109271,104107
23712,109236,104091
23717,109192,104098
23723,109233,104090
23728,109217,104082
23732,109224,104126
23737,109204,104103
23742,109217,104094
23747,109220,104113
23752,109184,104131
23757,109138,104142
23762,109156,104144
23768,109163,104051
23773,109167,104112
23776,109155,104123
23781,109190,104138
23787,109173,104116
23792,109127,104120
23797,109099,104102
23802,109097,104073
23808,109136,104051
23813,109130,104020
23816,109134,103997
23821,109134,104016
23826,109153,103972
23831,109112,103948
23836,109081,103921
23842,109098,103890
23847,109103,103846
23853,109108,103820
23858,109119,103832
23861,109145,103826
23866,109136,103801
23871,109103,103793
23876,109088,103781
23881,109087,103786
23886,109113,103766
23892,109110,103733
23898,109109,103717
23901,109126,103742
23906,109145,103732
23911,109094,103728
23916,109083,103728
23921,109103,103730
23926,109112,103745
23931,109117,103704
23937,109137,103686
23941,109145,103731
23946,109135,103729
23951,109097,103760
23956,109071,103740
23961,109117,103777
23966,109118,103775
23971,109133,103727
23976,109120,103713
23982,109134,103730
23986,109156,103770
23991,109121,103795
23996,109084,103810
24001,109112,103813
24006,109139,103853
24011,109132,103817
24016,109142,103805
24022,109144,103788
24026,109150,103812
24031,109121,103857
24036,109111,103857
24041,109130,103894
24046,109149,103920
24051,109149,103920
24056,109158,103888
24061,109148,103881
24067,109177,103922
24071,109137,103929
24076,109115,103948
24081,109135,103954
24086,109158,103983
24091,109164,103994
24096,109169,104005
24101,109172,103958
24107,109182,103938
24111,109147,103988
24116,109122,103994
24121,109158,104016
24126,109175,104024
24131,109165,104026
24136,109184,104042
24141,109195,103995
24146,109209,103995
24152,109145,104013
24156,109140,104025
24161,109180,104014
24166,109183,104026
24171,109175,104053
24176,109176,104091
24181,109209,104038
24186,109209,104030
24192,109167,104005
24196,109159,104032
24201,109173,104034
24206,109184,104058
24211,109191,104054
24216,109193,104047
24221,109199,104053
24226,109209,104023
24231,109195,103996
24237,109179,103989
24241,109200,104027
24246,109203,104057
24251,109223,104019
24256,109214,104043
24261,109225,104041
24266,109241,104050
24271,109202,103973
24276,109197,103997
24281,109207,104008
24286,109239,104050
24291,109224,104041
24296,109235,104023
24301,109255,104028
24306,109281,104071
24311,109221,104062
24316,109210,104009
24322,109222,104006
24326,109227,104039
24331,109252,104027
24336,109256,104041
24341,109271,104065
24346,109299,104060
24351,109259,104048
24356,109232,104027
24361,109238,104011
24367,109263,104035
24371,109292,104076
24376,109275,104055
24381,109296,104056
24386,109312,104063
24391,109265,104086
24396,109252,104062
24401,109262,104077
24407,109303,104034
24411,109296,104075
24416,109285,104079
24421,109316,104106
24426,109335,104091
24431,109271,104089
24436,109265,104097
24441,109289,104075
24446,109313,104042
24452,109316,104087
24456,109325,104084
24461,109347,104085
24466,109353,104108
24471,109298,104114
24476,109291,104143
24481,109291,104109
24486,109314,104075
24492,109306,104057
24495,109284,104132
24501,109316,104155
24506,109317,104132
24511,109261,104154
24516,109230,104180
24521,109242,104135
24526,109271,104102
24531,109259,104099
24535,109264,104149
24540,109275,104134
24545,109285,104150
24551,109232,104144
24556,109201,104146
24561,109251,104150
24566,109229,104082
24571,109246,104066
24577,109232,104044
24580,109247,104032
24585,109258,104034
24590,109212,104001
24596,109212,104015
24601,109229,104025
24606,109242,103977
24611,109237,103904
24616,109238,103866
24620,109230,103876
24625,109254,103891
24630,109217,103851
24635,109211,103867
24641,109250,103851
24646,109226,103829
24651,109252,103753
24656,109256,103748
24659,109254,103768
24665,109227,103776
24670,109212,103752
24675,109229,103756
24680,109260,103779
24686,109257,103785
24691,109263,103760
24696,109250,103689
24699,109255,103759
24705,109244,103775
24710,109224,103753
24715,109257,103794
24720,109259,103804
24725,109264,103779
24731,109272,103762
24736,109261,103720
24741,109258,103775
24744,109257,103778
24750,109217,103774
24755,109240,103795
24760,109271,103829
24765,109264,103843
24770,109256,103849
24775,109251,103820
24781,109246,103807
24784,109254,103838
24790,109197,103870
24795,109249,103879
24800,109268,103908
24805,109263,103899
24810,109268,103937
24815,109267,103897
24820,109279,103903
24824,109281,103940
24829,109240,103962
24835,109268,103965
24840,109286,103977
24845,109287,104024
24850,109299,104027
24855,109295,104008
24860,109295,103975
24865,109285,104021
24869,109287,104017
24875,109280,104037
24880,109293,104033
24885,109308,104052
24890,109314,104041
24895,109309,104069
24900,109312,104033
24905,109300,104010
24910,109295,104053
24914,109311,104059
24920,109314,104049
24925,109321,104050
24930,109317,104092
24935,109323,104121
24940,109320,104005
24945,109326,104003
24950,109325,104023
24954,109316,104060
24960,109330,104047
24965,109316,104050
24970,109339,104059
24975,109336,104113
24980,109331,104095
24985,109324,104006
24990,109324,103999
24994,109335,104055
24999,109340,104034
25005,109334,104049
25010,109323,104049
25015,109328,104068
25020,109338,104079
25025,109357,104081
25030,109338,104026
25035,109348,104034
25039,109356,104039
25044,109351,104068
25050,109335,104054
25055,109341,104063
25060,109354,104093
25065,109340,104056
25070,109352,104036
25075,109348,104005
25079,109346,104038
25084,109362,104049
25090,109357,104073
25095,109378,104056
25100,109375,104086
25105,109378,104104
25110,109379,104085
25115,109380,104035
25120,109361,104040
25124,109380,104056
25129,109380,104069
25135,109379,104061
25140,109392,104099
25145,109378,104091
25150,109386,104083
25155,109386,104049
25160,109400,104018
25165,109381,104071
25169,109395,104077
25175,109384,104102
25180,109367,104084
25185,109391,104115
25190,109378,104111
25195,109358,104107
25200,109360,104062
25205,109360,104053
25209,109339,104115
25214,109349,104110
25220,109348,104111
25225,109329,104152
25230,109332,104128
25235,109341,104135
25240,109318,104115
25245,109299,104078
25250,109323,104114
25254,109318,104113
25260,109300,104120
25265,109295,104096
25270,109292,104084
25275,109284,104110
25280,109290,104056
25285,109286,104030
25290,109285,103985
25294,109263,103988
25299,109276,103964
25305,109274,103946
25310,109276,103946
25315,109263,103948
25320,109270,103888
25325,109252,103836
25330,109249,103836
25335,109271,103816
25339,109254,103821
25345,109257,103823
25350,109253,103816
25355,109262,103794
25360,109267,103792
25365,109246,103764
25370,109275,103763
25375,109274,103731
25378,109252,103754
25384,109261,103750
25390,109259,103769
25395,109264,103782
25400,109267,103790
25405,109261,103798
25410,109259,103741
25415,109277,103719
25418,109282,103755
25423,109265,103767
25430,109276,103754
25435,109272,103792
25440,109290,103798
25445,109285,103770
25450,109272,103768
25455,109273,103744
25458,109286,103784
25463,109269,103816
25468,109274,103821
25475,109277,103816
25480,109270,103854
25485,109284,103871
25490,109283,103818
25495,109290,103800
25500,109269,103842
25503,109271,103876
25508,109272,103882
25513,109283,103894
25520,109259,103923
25525,109272,103937
25530,109281,103889
25535,109274,103898
25540,109289,103934
25543,109253,103963
25548,109282,103963
25553,109270,103980
25560,109271,104005
25565,109266,103974
25570,109273,103979
25575,109258,103955
25580,109259,103984
25583,109280,104021
25588,109274,104042
25593,109267,104005
25600,109280,104029
25605,109262,104049
25610,109285,104021
25615,109280,104011
25620,109274,103969
25623,109290,104015
25628,109284,104008
25633,109282,104050
25638,109290,104034
25644,109285,104054
25649,109300,104054
25655,109292,104012
25660,109299,103986
25665,109307,104018
25668,109309,104023
25673,109307,104031
25678,109310,104033
25683,109323,104053
25689,109309,104081
25694,109299,104035
25700,109304,103995
25705,109318,103991
25708,109320,104019
25713,109314,104026
25718,109323,104063
25723,109326,104022
25729,109319,104038
25734,109339,104050
25739,109329,103998
25744,109333,103969
25748,109343,104013
25753,109333,104030
25758,109333,104034
25763,109351,104045
25768,109332,104077
25774,109335,104035
25779,109348,104003
25784,109344,103990
25789,109339,104012
25793,109344,104031
25798,109349,104017
25803,109338,104037
25808,109345,104034
25814,109355,104057
25819,109334,104077
25824,109349,104002
25829,109345,104015
25833,109364,104034
25838,109345,104052
25843,109355,104057
25848,109367,104051
25853,109325,104067
25859,109352,104070
25864,109357,104045
25869,109352,104019
25874,109350,104042
25878,109332,104074
25883,109344,104065
25888,109337,104058
25893,109323,104086
25899,109318,104096
25904,109296,104074
25909,109305,104083
25914,109300,104035
25918,109285,104071
25923,109285,104087
25928,109267,104089
25933,109260,104094
25938,109265,104111
25944,109249,104078
25949,109252,104035
25954,109260,104027
25959,109252,104044
25963,109234,104046
25968,109239,104020
25973,109222,103998
25978,109220,104004
25984,109212,103983
25989,109216,103979
25994,109233,103886
25999,109228,103872
26003,109220,103884
26008,109222,103859
26013,109212,103838
26018,109216,103835
26023,109203,103860
26029,109201,103824
26034,109200,103773
26039,109210,103752
26044,109211,103740
26048,109195,103755
26053,109217,103750
26058,109214,103753
26063,109210,103764
26068,109206,103779
26074,109204,103794
26079,109199,103687
26084,109209,103693
26088,109202,103722
26093,109208,103727
26098,109194,103738
26103,109210,103753
26108,109218,103795
26114,109210,103706
26119,109202,103733
26124,109213,103720
26128,109221,103752
26133,109237,103761
26138,109229,103752
26143,109226,103775
26148,109223,103808
26153,109224,103762
26159,109224,103764
26164,109228,103753
26168,109220,103790
26173,109315,103806
26178,109223,103821
26183,109225,103849
26188,109205,103871
26193,109220,103815
26199,109220,103825
26203,109234,103838
26208,109296,103840
26213,109218,103874
26218,109234,103908
26223,109212,103864
26228,109224,103863
26233,109231,103894
26237,109263,103917
26243,109286,103967
26248,109229,103999
26254,109234,103922
26259,109232,103943
26264,109224,103905
26267,109265,103955
26273,109292,103993
26278,109224,104025
26284,109230,103995
26289,109239,103965
26294,109231,103934
26298,109288,103969
26303,109278,104004
26308,109230,103988
26313,109235,104019
26318,109223,103948
26323,109265,103961
26328,109315,103984
26333,109259,103988
26338,109231,104033
26343,109251,103982
26348,109262,103960
26353,109323,103985
26357,109307,103988
26363,109188,104003
26369,109273,104005
26374,109260,103971
26379,109347,103951
26382,109320,103984
26388,109241,104027
26393,109270,104010
26398,109267,103983
26403,109359,103951
26407,109343,103983
26413,109230,104054
26418,109279,104006
26424,109362,103969
26429,109334,103986
26432,109277,104009
26438,109215,104002
26443,109297,103979
26448,109363,103968
26454,109341,103972
26458,109234,103999
26463,109243,104021
26468,109371,103955
26473,109388,103959
26477,109310,103980
26483,109243,104012
26488,109394,103989
26493,109369,103964
26498,109279,103996
26503,109252,104039
26508,109379,103993
26513,109324,103984
26517,109224,103998
26523,109247,104021
26528,109378,103990
26533,109283,103990
26537,109265,104005
26543,109252,104010
26548,109370,103969
26553,109230,104020
26557,109250,104026
26563,109290,104008
26568,109335,103996
26573,109243,104033
26577,109279,104041
26583,109286,104022
26589,109287,103998
26592,109277,104050
26598,109295,104014
26603,109238,104032
26607,109233,104047
26613,109262,104025
26618,109246,104037
26622,109243,104067
26628,109258,104048
26633,109215,104045
26637,109244,104086
26643,109247,104048
26648,109206,104067
26652,109216,104076
26658,109225,104006
26663,109190,104041
26667,109198,104067
26673,109214,104022
26678,109175,104033
26687,109210,104023
26692,109191,103977
26702,109163,103989
26707,109209,103896
26713,109230,103835
26722,109213,103879
26727,109170,103812
26732,109158,103796
26735,109165,103800
26740,109193,103839
26745,109177,103814
26750,109196,103862
26757,109205,103820
26762,109168,103706
26767,109136,103701
26772,109149,103675
26775,109182,103714
26780,109176,103737
26785,109184,103718
26790,109185,103816
26796,109207,103796
26801,109200,103731
26806,109141,103631
26812,109152,103691
26815,109177,103653
26820,109190,103705
26825,109187,103718
26830,109213,103754
26835,109237,103784
26841,109191,103797
26846,109159,103696
26851,109167,103628
26855,109183,103688
26860,109192,103737
26865,109184,103751
26870,109202,103744
26875,109240,103821
26881,109219,103821
26886,109161,103803
26891,109164,103674
26895,109179,103743
26900,109200,103778
26905,109193,103781
26910,109195,103788
26915,109233,103810
26920,109198,103901
26926,109180,103876
26931,109171,103841
26935,109183,103739
26940,109204,103839
26945,109185,103882
26950,109195,103866
26955,109235,103892
26960,109208,103912
26966,109166,103984
26971,109154,103939
26975,109178,103870
26980,109197,103935
26985,109199,103916
26990,109185,103932
26995,109215,103951
27000,109237,103947
27005,109174,103979
27011,109156,103999
27015,109189,103986
27020,109219,103936
27025,109196,103944
27030,109188,103941
27035,109235,103946
27040,109225,103972
27045,109200,103944
27051,109175,104013
27056,109189,103996
27060,109210,104001
27065,109232,103946
27070,109227,103955
27075,109243,103963
27080,109267,103963
27085,109227,103971
27090,109207,103963
27096,109204,104050
27100,109233,104000
27105,109235,103953
27110,109246,103949
27115,109266,103961
27120,109268,103940
27125,109253,103962
27130,109221,103929
27136,109205,103991
27140,109221,104004
27145,109242,103953
27150,109247,103950
27155,109273,103929
27160,109280,103952
27165,109243,103955
27170,109233,103971
27175,109234,103990
27179,109262,104034
27185,109267,103938
27190,109281,103952
27195,109293,103935
27200,109312,103961
27205,109256,103946
27210,109232,103960
27215,109250,103956
27218,109275,104025
27224,109295,103963
27229,109283,103970
27235,109307,103967
27240,109328,103971
27245,109283,103958
27250,109255,103968
27255,109272,103962
27258,109291,104003
27264,109293,103997
27269,109292,103975
27274,109310,103991
27279,109343,103987
27285,109285,103985
27290,109263,103990
27295,109287,103991
27298,109308,104048
27303,109305,104003
27309,109314,104038
27314,109334,104003
27319,109337,104021
27324,109318,104008
27329,109299,104019
27335,109285,104013
27338,109304,104012
27343,109306,104032
27348,109297,104025
27354,109314,104031
27359,109331,104030
27364,109286,104031
27369,109256,104045
27374,109221,104040
27378,109263,104061
27383,109243,104037
27388,109217,104058
27394,109239,104048
27399,109248,104062
27404,109212,104063
27409,109187,104053
27414,109164,104044
27418,109162,104048
27423,109177,104063
27428,109171,104026
27433,109182,104021
27439,109187,104013
27444,109179,103990
27449,109128,104000
27454,109131,103989
27458,109156,103948
27463,109141,103936
27468,109141,103894
27473,109177,103859
27479,109190,103877
27484,109145,103854
27489,109119,103827
27494,109095,103802
27498,109118,103789
27503,109130,103766
27508,109128,103766
27513,109153,103752
27518,109166,103741
27524,109131,103731
27529,109105,103719
27534,109075,103722
27538,109102,103704
27543,109126,103704
27548,109105,103726
27553,109123,103703
27558,109121,103696
27564,109129,103700
27569,109093,103695
27574,109080,103699
27578,109099,103678
27583,109089,103715
27588,109086,103691
27593,109092,103691
27598,109128,103707
27603,109147,103725
27609,109085,103725
27614,109061,103709
27619,109075,103711
27623,109077,103741
27628,109084,103721
27633,109092,103733
27638,109119,103730
27643,109124,103762
27649,109080,103759
27654,109057,103753
27659,109071,103774
27663,109099,103773
27668,109109,103768
27673,109106,103780
27678,109130,103778
27683,109151,103803
27688,109099,103806
27694,109077,103816
27699,109108,103856
27702,109113,103843
27707,109134,103851
27713,109122,103854
27718,109151,103855
27723,109154,103883
27728,109123,103868
27734,109104,103873
27739,109129,103881
27742,109140,103873
27747,109145,103907
27752,109159,103892
27758,109163,103896
27763,109174,103916
27768,109151,103911
27773,109119,103888
27779,109137,103924
27782,109176,103905
27787,109180,103905
27792,109161,103910
27797,109189,103913
27802,109190,103918
27808,109141,103917
27813,109117,103921
27816,109145,103936
27822,109160,103908
27827,109171,103942
27832,109176,103927
27837,109173,103939
27842,109181,103918
27847,109161,103946
27852,109132,103948
27856,109149,103937
27862,109169,103913
27867,109178,103912
27872,109190,103924
27877,109200,103929
27882,109196,103919
27887,109181,103926
27892,109154,103934
27897,109169,103908
27901,109183,103904
27907,109200,103928
27912,109203,103918
27917,109199,103919
27922,109232,103922
27927,109182,103951
27932,109153,103928
27936,109200,103919
27941,109198,103921
27947,109216,103920
27952,109201,103930
27957,109228,103935
27962,109230,103950
27967,109182,103930
27972,109168,103936
27976,109184,103942
27981,109194,103926
27986,109191,103944
27992,109213,103933
27997,109220,103939
28002,109221,103938
28007,109192,103946
28012,109171,103946
28016,109197,103971
28021,109224,103967
28026,109217,103978
28032,109217,103970
28037,109236,103967
28042,109232,103981
28047,109230,103973
28052,109174,103972
28057,109197,103972
28061,109228,103985
28066,109227,103987
28071,109211,104008
28077,109243,103994
28082,109240,103981
28087,109192,104010
28092,109176,103992
28097,109201,103986
28101,109225,104000
28106,109215,104004
28111,109229,104052
28116,109240,104014
28122,109246,104025
28127,109220,104014
28132,109188,103998
28137,109201,104018
28141,109222,104032
28146,109230,104049
28151,109223,104036
28156,109247,104050
28162,109255,104051
28167,109245,104042
28172,109183,104028
28177,109187,104038
28181,109226,104055
28186,109216,104070
28191,109210,104058
28196,109217,104072
28201,109199,104040
28207,109185,104067
28212,109144,104055
28217,109139,104094
28221,109149,104076
28226,109146,104068
28231,109142,104048
28236,109157,104093
28241,109168,104064
28247,109129,104082
28252,109085,104072
28257,109078,104068
28260,109077,104077
28265,109098,104046
28271,109090,104034
28276,109103,104021
28281,109104,103979
28286,109064,103959
28292,109035,103940
28297,109049,103905
28300,109053,103881
28305,109062,103875
28310,109060,103848
28315,109075,103839
28321,109067,103801
28326,109018,103779
28332,109004,103781
28337,109032,103758
28340,109049,103736
28345,109032,103712
28350,109061,103724
28355,109062,103714
28360,109068,103716
28365,109025,103704
28371,109010,103697
28377,109023,103707
28380,109027,103692
28385,109044,103677
28390,109050,103702
28395,109089,103667
28400,109080,103706
28405,109040,103686
28410,109001,103688
28416,109021,103698
28420,109047,103700
28425,109060,103674
28430,109047,103694
28435,109077,103694
28440,109064,103719
28445,109055,103704
28450,109002,103721
28455,109016,103712
28460,109035,103706
28465,109043,103726
28470,109043,103728
28475,109069,103752
28480,109090,103739
28485,109077,103736
28490,109029,103750
28495,109003,103790
28499,109050,103783
28505,109066,103783
28510,109069,103803
28515,109070,103819
28520,109089,103809
28525,109059,103830
28530,109033,103849
28535,109024,103838
28539,109057,103828
28545,109066,103855
28550,109061,103873
28555,109060,103887
28560,109074,103892
28565,109085,103878
28570,109038,103902
28575,109014,103894
28580,109032,103876
28584,109057,103903
28590,109073,103908
28595,109048,103924
28600,109083,103917
28605,109088,103930
28610,109034,103922
28615,109030,103916
28620,109059,103946
28624,109067,103914
28630,109082,103923
28635,109078,103928
28640,109104,103937
28645,109090,103923
28650,109058,103931
28655,109026,103939
28660,109067,103932
28665,109074,103904
28669,109079,103929
28675,109087,103928
28680,109100,103912
28685,109097,103946
28690,109084,103937
28695,109054,103940
28700,109049,103934
28705,109088,103887
28710,109087,103897
28715,109088,103914
28720,109117,103945
28725,109121,103915
28730,109084,103925
28735,109057,103938
28740,109073,103936
28745,109099,103933
28750,109079,103891
28754,109095,103928
28760,109112,103937
28765,109123,103923
28770,109091,103951
28775,109067,103931
28780,109083,103915
28785,109106,103903
28790,109090,103873
28795,109102,103906
28800,109135,103922
28805,109161,103920
28810,109089,103921
28815,109094,103949
28820,109107,103947
28825,109131,103934
28830,109125,103931
28835,109120,103924
28838,109139,103942
28844,109166,103977
28849,109125,103951
28855,109101,103948
28860,109121,103960
28865,109135,103975
28870,109144,103924
28875,109139,103910
28878,109138,103993
28883,109168,103992
28889,109121,103986
28894,109097,103990
28900,109149,103984
28905,109147,104018
28910,109149,103955
28915,109153,103973
28920,109173,103969
28923,109192,104019
28929,109145,104005
28934,109119,104010
28939,109147,104022
28944,109150,104044
28950,109167,104021
28955,109164,103987
28960,109199,103990
28963,109214,104009
28968,109179,104017
28974,109141,104030
28979,109179,104017
28984,109193,104073
28989,109183,104055
28994,109185,104041
29000,109231,104013
29005,109217,104039
29008,109179,104045
29014,109175,104048
29019,109207,104056
29024,109212,104070
29029,109189,104084
29034,109233,104069
29039,109226,104024
29044,109194,104037
29048,109159,104080
29053,109121,104071
29059,109150,104083
29064,109165,104075
29069,109163,104102
29074,109148,104092
29079,109158,104086
29084,109150,104012
29089,109106,104079
29093,109077,104095
29099,109095,104081
29104,109111,104097
