Time,IR_brachial,IR_ankle
12,57692,57714
17,74204,74407
22,90427,90224
27,107077,103941
31,109084,104127
36,109077,104153
41,109091,104145
47,109082,104149
52,109090,104148
57,109082,104186
62,109094,104168
67,109102,104168
71,109087,104178
76,109094,104186
81,109097,104187
87,109093,104199
92,109082,104221
97,109098,104196
102,109095,104214
107,109091,104218
112,109098,104203
116,109108,104218
121,109071,104216
125,109083,104215
131,109114,104211
136,109112,104236
141,109124,104213
145,109129,104222
150,109139,104216
155,109144,104243
160,109157,104234
165,109166,104233
171,109176,104206
176,109178,104239
181,109179,104228
185,109148,104217
190,109158,104207
195,109178,104209
200,109149,104216
205,109141,104203
210,109147,104218
216,109134,104225
221,109154,104221
226,109145,104198
230,109155,104225
235,109158,104201
240,109125,104219
245,109107,104219
250,109103,104222
256,109071,104224
261,109058,104239
266,109055,104239
271,109063,104235
275,109021,104226
280,109022,104227
285,108994,104228
290,109003,104236
295,108994,104221
301,109001,104240
306,109023,104253
311,109037,104251
315,109014,104224
320,109019,104251
325,109020,104281
330,109006,104243
335,109002,104240
340,109016,104247
346,109017,104274
351,109158,104255
356,109178,104269
360,109013,104252
365,109001,104265
370,109011,104255
375,108995,104260
380,108983,104258
386,108960,104263
391,108963,104277
396,108944,104266
400,108947,104281
405,108940,104293
410,108937,104258
415,108923,104254
420,108924,104283
425,108919,104282
431,108913,104247
436,108939,104228
451,108932,104241
456,108932,104202
461,108932,104164
465,108950,104135
471,108925,104144
476,108947,104101
481,108931,104090
486,108954,104095
491,108948,104080
496,108960,104076
500,108951,104085
505,108955,104086
509,108971,104084
515,108977,104068
520,108991,104054
525,108991,104050
530,108989,104069
535,108994,104052
540,109000,104054
545,108990,104037
550,108991,104044
556,109018,104040
561,109009,104061
566,109021,104042
571,109029,104072
575,109037,104095
580,109039,104044
585,109038,104087
590,109065,104092
595,109040,104032
601,109028,104025
606,109034,104069
611,109057,104036
616,109047,104061
621,109045,104035
626,109046,104041
631,109022,104080
636,109025,104075
640,109023,104096
645,109007,104109
650,108999,104119
655,108985,104120
660,108998,104125
665,108973,104140
670,108981,104158
675,108969,104147
680,108961,104147
685,108974,104161
690,108964,104188
695,108959,104207
700,108963,104201
705,108936,104223
710,108952,104217
715,108957,104227
720,108932,104232
726,108951,104246
731,108954,104226
736,108932,104249
741,108963,104192
746,108962,104195
750,108966,104201
755,108960,104214
760,108955,104175
765,108954,104189
771,108951,104190
775,108942,104218
780,108975,104225
785,108949,104225
790,108951,104223
795,108942,104212
799,108949,104208
804,108935,104213
809,108940,104240
815,108947,104204
820,108949,104227
825,108945,104209
830,108951,104225
835,108947,104229
840,108956,104246
845,108950,104259
850,108968,104222
856,108953,104213
861,108948,104227
865,108959,104209
870,108956,104184
875,108964,104154
880,108950,104194
885,108955,104177
890,108981,104163
896,109027,104161
901,109051,104161
906,109061,104176
909,109039,104209
914,109056,104198
919,108996,104192
924,108993,104208
929,109007,104224
934,109000,104216
940,108986,104238
945,108999,104215
950,109005,104227
955,109008,104238
960,108995,104213
965,109000,104228
970,108992,104294
974,108998,104238
979,109001,104241
985,108999,104260
990,109003,104267
995,108999,104289
1000,109019,104263
1005,109037,104268
1010,109088,104207
1015,109062,104216
1020,109014,104242
1025,108945,104252
1030,108930,104275
1035,109006,104264
1040,108987,104252
1045,108968,104297
1050,108966,104285
1055,108968,104328
1060,108971,104277
1065,109013,104283
1071,109010,104254
1075,109003,104256
1080,108919,104248
1084,108860,104259
1089,108850,104263
1094,108921,104271
1099,108926,104276
1104,108921,104255
1110,108903,104241
1115,108912,104234
1120,108927,104216
1125,108977,104255
1130,108965,104198
1135,108951,104118
1140,108882,104116
1145,108817,104108
1150,108819,104102
1154,108847,104117
1159,108848,104107
1164,108897,104101
1169,108895,104095
1174,108875,104125
1179,108962,104097
1184,108944,104082
1189,108915,104066
1195,108863,104040
1200,108802,104021
1205,108824,104024
1210,108824,104019
1214,108833,104038
1219,108837,104033
1224,108854,104033
1229,108869,104036
1234,108896,104047
1240,108962,104054
1245,108938,104060
1250,108935,104072
1255,108835,104053
1260,108805,104029
1265,108823,104013
1270,108854,104008
1275,108829,104041
1284,108860,104074
1289,108852,104011
1294,108833,104055
1299,108845,103989
1302,108865,104059
1307,108879,104095
1312,108883,104123
1317,108881,104099
1323,108885,104152
1328,108898,104201
1333,108925,104174
1338,108901,104172
1343,108886,104134
1348,108872,104070
1353,108850,104075
1358,108851,104099
1362,108850,104143
1368,108887,104186
1373,108899,104197
1378,108882,104184
1383,108888,104203
1388,108919,104232
1393,108929,104305
1398,108908,104267
1403,108885,104262
1409,108884,104180
1414,108862,104138
1419,108877,104174
1422,108895,104029
1427,108894,104249
1432,108916,104224
1437,108901,104222
1442,108887,104228
1447,108930,104235
1453,108948,104291
1458,108943,104342
1463,108908,104319
1468,108897,104284
1473,108873,104210
1478,108873,104126
1482,108903,104167
1487,108916,104210
1492,108928,104228
1497,108936,104231
1502,108921,104223
1507,108943,104217
1512,108959,104199
1517,108950,104226
1522,108931,104290
1527,108926,104304
1532,108896,104279
1538,108901,104267
1542,108944,104156
1547,108935,104212
1552,108943,104223
1557,108939,104235
1562,108924,104235
1567,108967,104214
1572,108980,104210
1577,108969,104239
1583,108949,104214
1588,108941,104268
1593,108916,104302
1598,108926,104260
1601,108949,104210
1606,108955,104215
1611,108956,104233
1616,108953,104217
1622,108969,104225
1627,108981,104237
1632,109000,104235
1637,108984,104249
1642,108966,104251
1647,108951,104251
1652,108946,104304
1657,108952,104301
1661,108964,104262
1667,108968,104259
1672,108971,104248
1677,108976,104259
1682,108957,104257
1687,108984,104250
1692,108987,104257
1697,108959,104275
1702,108909,104283
1708,108913,104266
1713,108897,104284
1716,108915,104344
1721,108926,104293
1726,108910,104284
1731,108902,104303
1736,108918,104314
1741,108908,104272
1746,108904,104287
1752,108909,104295
1757,108906,104295
1762,108858,104284
1767,108829,104281
1772,108859,104256
1776,108866,104276
1781,108871,104253
1786,108888,104242
1792,108887,104199
1796,108885,104208
1801,108884,104182
1806,108897,104167
1811,108899,104189
1816,108891,104129
1821,108850,104152
1826,108855,104110
1831,108835,104116
1837,108846,104097
1841,108880,104090
1846,108859,104087
1851,108873,104081
1856,108877,104082
1861,108863,104071
1866,108887,104064
1871,108899,104061
1876,108902,104057
1882,108885,104047
1887,108834,104065
1892,108827,104046
1897,108855,104051
1900,108877,104049
1905,108866,104059
1910,108873,104044
1915,108877,104058
1921,108899,104058
1926,108909,104066
1931,108918,104076
1936,108901,104060
1941,108856,104075
1946,108866,104084
1951,108857,104097
1956,108876,104086
1960,108888,104097
1966,108899,104111
1971,108883,104147
1976,108890,104126
1981,108909,104141
1986,108903,104157
1991,108911,104128
1996,108902,104147
2001,108870,104161
2007,108842,104166
2012,108869,104183
2015,108873,104183
2020,108890,104177
2025,108898,104192
2030,108884,104195
2035,108889,104209
2040,108911,104195
2045,108914,104209
2051,108911,104227
2056,108895,104216
2061,108879,104226
2066,108866,104219
2071,108889,104212
2075,108886,104244
2080,108914,104239
2085,108893,104242
2091,108909,104243
2096,108933,104263
2101,108949,104250
2106,108950,104266
2111,108941,104239
2116,108894,104245
2120,108871,104245
2125,108894,104229
2129,108911,104241
2135,108922,104239
2140,108938,104228
2145,108935,104240
2150,108917,104246
2155,108938,104244
2160,108933,104241
2165,108967,104241
2170,108949,104236
2176,108919,104246
2181,108892,104225
2186,108906,104227
2190,108922,104258
2194,108917,104244
2199,108934,104226
2204,108936,104214
2209,108936,104216
2214,108963,104262
2220,108953,104242
2225,108969,104245
2230,108957,104229
2235,108930,104244
2240,108904,104250
2245,108916,104218
2249,108940,104204
2254,108955,104226
2259,108956,104253
2265,108963,104258
2270,108969,104242
2275,109001,104221
2280,108990,104236
2285,109003,104251
2290,108993,104236
2295,108946,104246
2300,108926,104243
2306,108953,104253
2309,108963,104260
2314,108967,104262
2319,108985,104253
2324,108994,104256
2329,108962,104278
2334,108995,104272
2339,109010,104272
2344,108986,104256
2350,108946,104288
2355,108930,104274
2360,108910,104281
2365,108929,104281
2369,108947,104283
2374,108925,104277
2379,108926,104291
2384,108919,104284
2390,108934,104295
2395,108937,104294
2400,108948,104312
2405,108930,104304
2410,108882,104289
2415,108861,104312
2420,108868,104262
2423,108875,104276
2428,108890,104256
2434,108880,104261
2439,108886,104230
2444,108882,104202
2449,108895,104200
2454,108890,104197
2459,108904,104181
2464,108887,104168
2469,108863,104162
2475,108831,104160
2480,108826,104095
2484,108850,104112
2489,108853,104088
2494,108880,104088
2499,108852,104083
2504,108864,104090
2509,108875,104070
2513,108888,104061
2519,108880,104063
2524,108874,104048
2529,108842,104037
2534,108833,104049
2539,108839,104052
2543,108854,104042
2548,108862,104027
2553,108855,104039
2558,108871,104029
2564,108871,104028
2569,108882,104036
2574,108884,104036
2579,108908,104037
2584,108890,104034
2589,108848,104041
2594,108853,104032
2599,108831,104031
2603,108843,104046
2608,108866,104068
2613,108875,104057
2618,108877,104075
2623,108882,104080
2628,108894,104085
2633,108891,104088
2638,108906,104076
2643,108885,104118
2649,108867,104114
2654,108861,104102
2659,108847,104119
2664,108863,104124
2668,108879,104120
2673,108875,104117
2678,108880,104138
2683,108865,104154
2689,108908,104146
2694,108872,104157
2699,108906,104156
2704,108859,104171
2709,108858,104183
2714,108842,104169
2719,108850,104178
2722,108860,104165
2727,108868,104174
2733,108881,104196
2738,108870,104195
2743,108880,104196
2748,108907,104199
2753,108916,104205
2758,108911,104192
2763,108872,104201
2768,108866,104202
2774,108860,104210
2779,108879,104208
2783,108879,104200
2788,108894,104200
2793,108883,104196
2798,108904,104192
2803,108919,104201
2808,108910,104193
2813,108933,104194
2818,108913,104188
2823,108892,104185
2828,108891,104199
2833,108890,104196
2838,108893,104188
2842,108924,104198
2847,108895,104189
2852,108924,104199
2857,108906,104207
2863,108932,104200
2868,108938,104195
2873,108942,104186
2878,108961,104203
2883,108928,104205
2888,108905,104206
2893,108889,104202
2898,108914,104215
2902,108941,104211
2907,108941,104209
2912,108929,104219
2917,108947,104205
2922,108959,104196
2927,108964,104230
2932,109008,104212
2937,108974,104227
2942,108944,104227
2948,108937,104212
2953,108917,104232
2958,108932,104224
2962,108939,104214
2967,108970,104223
2972,108982,104232
2977,108972,104241
2982,108950,104245
2988,108993,104259
2993,108978,104267
2998,108964,104238
3003,108935,104263
3008,108885,104259
3013,108900,104263
3016,108926,104238
3021,108929,104254
3026,108922,104274
3032,108916,104265
3037,108909,104268
3042,108937,104272
3047,108908,104268
3052,108931,104283
3057,108921,104276
3062,108856,104275
3067,108859,104256
3073,108839,104261
3078,108848,104267
3082,108859,104212
3087,108862,104233
3092,108848,104220
3097,108845,104181
3102,108859,104185
3106,108855,104166
3111,108878,104166
3117,108853,104151
3122,108813,104125
3127,108800,104114
3132,108802,104109
3137,108815,104077
3142,108811,104056
3146,108823,104053
3151,108846,104087
3156,108818,104053
3162,108819,104043
3167,108851,104043
3172,108854,104056
3177,108846,104026
3182,108810,104025
3187,108807,104008
3192,108784,104018
3197,108781,104018
3203,108786,103973
3208,108814,103957
3211,108811,103990
3216,108806,104003
3221,108817,103998
3226,108826,103994
3231,108848,103991
3236,108839,104015
3241,108804,104028
3247,108799,104011
3252,108787,104036
3257,108806,104024
3262,108804,104011
3267,108825,103958
3272,108825,103995
3277,108825,104011
3281,108817,104030
3287,108848,104049
3292,108846,104055
3297,108849,104070
3302,108795,104065
3307,108787,104060
3312,108793,104069
3317,108802,104076
3322,108825,104094
3328,108826,104050
3333,108829,104039
3337,108825,104097
3341,108850,104098
3346,108882,104118
3351,108860,104129
3356,108836,104132
3361,108801,104139
3366,108774,104143
3372,108806,104134
3377,108816,104159
3382,108833,104162
3387,108829,104147
3392,108834,104138
3397,108833,104125
3402,108869,104124
3405,108853,104126
3410,108866,104160
3416,108857,104165
3421,108832,104166
3426,108816,104159
3431,108806,104178
3436,108824,104176
3441,108853,104210
3446,108835,104210
3451,108856,104203
3457,108848,104169
3462,108869,104112
3467,108881,104153
3472,108903,104141
3476,108889,104153
3481,108834,104178
3486,108829,104170
3491,108841,104168
3496,108853,104175
3502,108879,104177
3507,108868,104168
3512,108882,104223
3517,108886,104180
3522,108897,104148
3527,108918,104131
3532,108911,104121
3535,108888,104172
3540,108861,104150
3546,108834,104166
3551,108867,104160
3556,108895,104165
3561,108882,104137
3566,108880,104185
3571,108894,104202
3576,108891,104214
3581,108909,104185
3587,108905,104158
3592,108911,104152
3597,108914,104147
3602,108861,104142
3606,108866,104188
3611,108870,104203
3616,108891,104197
3621,108916,104177
3627,108897,104179
3632,108917,104231
3636,108936,104224
3641,108955,104240
3646,108938,104165
3651,108929,104204
3656,108897,104135
3661,108891,104167
3665,108891,104205
3671,108904,104195
3676,108927,104216
3681,108923,104212
3686,108899,104215
3691,108927,104215
3696,108897,104257
3701,108922,104239
3706,108919,104278
3712,108908,104220
3717,108852,104221
3722,108863,104224
3727,108814,104204
3732,108831,104220
3735,108846,104236
3740,108847,104233
3745,108850,104238
3750,108843,104223
3756,108847,104215
3761,108836,104234
3766,108860,104258
3771,108849,104209
3776,108827,104178
3781,108780,104096
3786,108790,104088
3791,108818,104092
3795,108819,104105
3801,108807,104103
3806,108806,104089
3811,108803,104071
3816,108843,104100
3821,108804,104080
3826,108817,104049
3831,108810,104032
3836,108758,104019
3842,108742,103999
3847,108768,103996
3852,108792,103964
3857,108788,103967
3860,108787,103992
3865,108795,103976
3870,108768,103984
3875,108805,103986
3880,108833,103990
3886,108825,103991
3891,108784,104004
3896,108756,103997
3901,108759,104003
3906,108784,103981
3911,108787,103965
3916,108802,103963
3921,108802,103988
3926,108799,103984
3931,108825,104021
3936,108835,104013
3941,108826,104006
3946,108832,104016
3951,108792,104032
3956,108766,104047
3961,108773,104041
3966,108796,104014
3972,108806,104001
3977,108822,104015
3982,108811,104058
3985,108811,104036
3990,108819,104062
3995,108836,104086
4000,108813,104085
4005,108782,104081
4011,108772,104116
4016,108778,104162
4021,108800,104135
4026,108812,104078
4031,108817,104090
4036,108803,104078
4041,108815,104099
4046,108803,104111
4050,108802,104109
4056,108842,104136
4061,108793,104138
4066,108778,104159
4071,108785,104168
4076,108796,104205
4081,108809,104167
4086,108831,104188
4091,108838,104109
4097,108818,104128
4102,108826,104161
4105,108824,104159
4110,108832,104156
4115,108788,104161
4120,108779,104180
4125,108801,104168
4130,108822,104202
4135,108839,104219
4141,108825,104213
4146,108853,104184
4151,108846,104152
4156,108870,104122
4161,108845,104138
4166,108863,104127
4170,108840,104145
4175,108823,104156
4180,108820,104161
4186,108843,104155
4191,108870,104152
4196,108871,104168
4201,108872,104181
4205,108881,104189
4210,108878,104129
4215,108864,104132
4220,108876,104141
4226,108884,104140
4230,108868,104163
4235,108832,104175
4240,108861,104164
4245,108880,104160
4250,108896,104166
4255,108896,104210
4260,108894,104204
4265,108898,104203
4271,108890,104189
4276,108895,104173
4281,108900,104128
4286,108892,104151
4290,108926,104164
4295,108894,104170
4300,108904,104184
4304,108916,104177
4310,108920,104185
4315,108917,104205
4320,108910,104209
4325,108931,104225
4330,108934,104225
4335,108947,104170
4340,108931,104212
4345,108926,104149
4350,108915,104186
4355,108926,104200
4360,108934,104197
4365,108934,104213
4370,108928,104249
4375,108932,104224
4380,108929,104246
4385,108923,104234
4390,108905,104266
4396,108892,104284
4401,108892,104208
4406,108881,104224
4411,108882,104190
4416,108896,104238
4419,108884,104240
4424,108878,104245
4429,108879,104246
4434,108861,104240
4440,108864,104230
4445,108858,104244
4450,108861,104233
4455,108861,104222
4460,108850,104187
4465,108837,104166
4470,108855,104129
4475,108844,104131
4481,108845,104123
4485,108851,104128
4490,108841,104115
4495,108844,104105
4500,108854,104069
4505,108854,104066
4510,108846,104087
4515,108838,104092
4520,108842,104051
4526,108831,104024
4531,108843,103969
4536,108844,103972
4541,108837,103988
4544,108849,104022
4549,108851,104018
4554,108845,103985
4559,108841,103982
4564,108847,103986
4570,108848,104035
4575,108855,104056
4580,108858,104034
4585,108832,104002
4590,108837,103995
4595,108841,103941
4600,108834,103973
4604,108849,104011
4610,108860,104006
4615,108842,104033
4620,108833,104022
4625,108824,104017
4630,108830,104058
4635,108837,104037
4640,108841,104035
4645,108830,104071
4651,108855,104020
4656,108836,103981
4661,108844,104046
4664,108840,104044
4669,108844,104079
4674,108862,104078
4679,108849,104076
4684,108845,104120
4689,108840,104087
4695,108826,104108
4700,108842,104155
4705,108856,104133
4710,108841,104142
4715,108846,104128
4720,108836,104091
4725,108849,104086
4730,108872,104127
4734,108866,104133
4740,108866,104140
4745,108863,104161
4750,108868,104181
4755,108891,104162
4759,108873,104199
4764,108877,104229
4769,108883,104168
4774,108886,104172
4780,108876,104155
4785,108884,104145
4790,108896,104152
4794,108897,104168
4799,108894,104175
4804,108900,104193
4809,108890,104187
4814,108888,104201
4819,108910,104193
4825,108897,104206
4830,108914,104216
4835,108912,104191
4840,108923,104148
4845,108916,104145
4850,108940,104136
4855,108930,104143
4858,108933,104164
4864,108945,104159
4869,108943,104187
4874,108958,104177
4879,108946,104195
4884,108944,104215
4889,108951,104203
4894,108968,104189
4899,108939,104161
4904,108960,104105
4910,108956,104155
4914,108968,104159
4919,108964,104192
4924,108970,104191
4929,108971,104178
4934,108966,104176
4939,108973,104176
4944,108963,104216
4950,108984,104191
4955,108990,104236
4960,108994,104197
4965,108977,104147
4970,108988,104153
4975,109001,104187
4978,108978,104183
4983,108982,104195
4988,109005,104218
4994,109012,104214
4999,109025,104220
5004,109015,104233
5009,109013,104245
5014,109034,104267
5019,109032,104261
5024,109038,104223
5029,109029,104221
5035,109040,104181
5040,109056,104208
5044,109065,104216
5049,109076,104229
5054,109090,104263
5059,109084,104250
5064,109063,104245
5069,109078,104256
5074,109065,104274
5080,109059,104323
5085,109054,104271
5090,109070,104264
5095,109047,104247
5100,109041,104240
5103,109013,104241
5108,109029,104270
5113,109001,104286
5118,109015,104293
5124,108988,104292
5129,108981,104309
5134,108978,104305
5139,108961,104310
5144,108957,104305
5149,108957,104274
5154,108949,104232
5159,108941,104209
5165,108941,104190
5170,108940,104195
5174,108936,104213
5179,108937,104182
5184,108926,104173
5189,108921,104169
5194,108926,104149
5199,108931,104161
5204,108929,104165
5210,108920,104124
5215,108921,104069
5220,108905,104058
5224,108903,104027
5229,108920,104042
5233,108912,104034
5238,108904,104045
5243,108895,104035
5249,108901,104053
5254,108913,104034
5259,108901,104042
5264,108898,104049
5269,108901,104035
5274,108910,104031
5279,108903,104021
5284,108904,103994
5289,108917,103988
5295,108907,103984
5299,108894,104027
5303,108907,104020
5308,108906,104019
5313,108915,104017
5318,108916,104072
5323,108905,104077
5328,108888,104049
5334,108913,104071
5339,108905,104079
5344,108895,104000
5349,108889,104009
5354,108910,104039
5359,108909,104078
5363,108916,104076
5368,108918,104096
5373,108907,104096
5379,108917,104124
5384,108930,104100
5389,108922,104145
5394,108909,104151
5399,108921,104194
5404,108940,104142
5409,108926,104137
5414,108930,104139
5420,108928,104152
5423,108933,104156
5428,108936,104171
5433,108922,104192
5438,108940,104182
5443,108917,104213
5448,108927,104206
5453,108938,104240
5458,108944,104203
5464,108939,104253
5469,108936,104189
5474,108948,104192
5479,108942,104166
5484,108946,104206
5488,108937,104215
5493,108942,104215
5498,108920,104223
5504,108907,104217
5509,108928,104228
5514,108925,104242
5519,108926,104228
5524,108921,104284
5529,108912,104202
5534,108915,104224
5539,108907,104160
5544,108918,104214
5548,108901,104225
5553,108893,104224
5558,108891,104217
5563,108900,104210
5568,108909,104244
5573,108893,104239
5578,108902,104225
5583,108896,104224
5588,108910,104178
5594,108894,104215
5599,108900,104182
5604,108895,104166
5608,108882,104196
5613,108900,104214
5618,108910,104244
5623,108898,104230
5628,108909,104239
5634,108893,104252
5639,108901,104231
5644,108900,104220
5649,108902,104233
5654,108908,104158
5659,108903,104201
5664,108910,104196
5667,108913,104222
5673,108986,104243
5679,108913,104234
5684,108906,104241
5689,108910,104299
5694,108914,104250
5699,108910,104217
5703,108929,104228
5708,108920,104191
5713,108916,104217
5718,108975,104234
5723,109001,104255
5728,108923,104291
5733,108920,104268
5738,108911,104277
5743,108937,104257
5748,108930,104249
5753,108925,104242
5758,108937,104229
5764,108979,104244
5768,109026,104262
5773,109002,104308
5778,108949,104273
5783,108960,104325
5788,108943,104310
5793,108949,104311
5798,108946,104263
5804,108956,104250
5809,108989,104255
5814,108991,104295
5818,108986,104297
5823,108930,104319
5828,108915,104374
5833,108903,104367
5838,108910,104315
5843,108886,104291
5849,108921,104295
5854,108964,104279
5859,108949,104307
5863,108918,104289
5868,108821,104318
5873,108890,104314
5878,108859,104297
5883,108855,104261
5889,108907,104222
5894,108930,104179
5899,108905,104183
5903,108854,104173
5908,108745,104210
5913,108841,104216
5918,108869,104114
5923,108931,104106
5928,108914,104060
5934,108892,104076
5939,108823,104099
5943,108745,104090
5948,108768,104104
5953,108858,104083
5958,108922,104046
5963,108891,104046
5968,108881,104007
5974,108807,104029
5978,108744,104058
5983,108769,104086
5988,108932,104037
5993,108894,104022
5998,108888,104025
6003,108811,104013
6008,108763,104021
6012,108769,104035
6018,108791,104100
6023,108906,104019
6028,108864,104010
6033,108738,104033
6037,108781,104047
6043,108806,104050
6048,108908,104049
6053,108805,104055
6059,108778,104058
6064,108792,104075
6067,108794,104092
6073,108804,104083
6078,108817,104116
6083,108771,104079
6088,108782,104087
6092,108801,104116
6098,108818,104102
6104,108752,104113
6109,108779,104120
6114,108858,104144
6117,108790,104154
6123,108806,104134
6128,108769,104156
6133,108766,104152
6138,108804,104184
6142,108778,104189
6148,108798,104182
6153,108742,104183
6158,108774,104199
6162,108769,104215
6168,108786,104212
6173,108769,104200
6178,108757,104207
6187,108801,104228
6192,108771,104163
6197,108747,104197
6202,108776,104210
6206,108768,104220
6211,108787,104261
6216,108784,104252
6221,108785,104275
6226,108780,104333
6232,108809,104309
6236,108803,104306
6241,108796,104265
6246,108765,104169
6251,108746,104177
6256,108732,104164
6261,108773,104200
6265,108763,104204
6270,108773,104247
6276,108784,104249
6281,108785,104235
6286,108791,104245
6291,108803,104298
6296,108827,104339
6301,108812,104327
6306,108818,104260
6311,108781,104206
6317,108775,104138
6322,108777,104175
6325,108814,104215
6330,108810,104240
6335,108829,104248
6340,108841,104241
6345,108834,104247
6350,108850,104244
6355,108890,104281
6361,108871,104315
6366,108841,104316
6371,108831,104297
6376,108823,104209
6381,108857,104179
6385,108858,104211
6390,108868,104261
6395,108882,104266
6401,108877,104263
6406,108869,104286
6411,108920,104292
6416,108934,104250
6421,108903,104303
6426,108868,104331
6431,108843,104347
6436,108867,104247
6439,108880,104171
6445,108907,104271
6450,108915,104280
6455,108917,104273
6460,108905,104282
6465,108941,104286
6470,108952,104294
6475,108945,104307
6480,108918,104314
6486,108886,104377
6491,108871,104371
6496,108891,104394
6500,108883,104310
6505,108905,104329
6510,108901,104323
6515,108883,104326
6520,108880,104314
6525,108895,104323
6531,108892,104336
6536,108883,104326
6541,108834,104334
6546,108793,104375
6551,108820,104401
6554,108828,104392
6559,108832,104342
6564,108834,104328
6569,108818,104348
6575,108808,104358
6580,108827,104363
6585,108860,104345
6590,108835,104313
6595,108824,104301
6600,108781,104275
6605,108761,104258
6610,108771,104290
6615,108784,104328
6620,108799,104208
6625,108811,104209
6630,108793,104197
6635,108807,104168
6639,108817,104133
6644,108822,104122
6649,108828,104131
6654,108813,104116
6660,108786,104111
6665,108765,104105
6670,108767,104080
6674,108783,104102
6679,108797,104048
6684,108797,104083
6689,108781,104063
6694,108787,104034
6700,108803,104042
6705,108796,104028
6710,108824,104053
6715,108785,104033
6720,108767,104025
6725,108740,104045
6730,108745,104048
6733,108766,104035
6738,108784,104051
6744,108796,104038
6749,108758,104054
6754,108792,104060
6759,108803,104055
6764,108809,104100
6769,108809,104070
6774,108810,104074
6779,108788,104088
6785,108735,104081
6790,108784,104071
6795,108777,104077
6799,108806,104096
6804,108788,104093
6809,108791,104120
6814,108792,104112
6819,108803,104124
6824,108831,104145
6830,108819,104168
6835,108774,104170
6840,108771,104168
6845,108748,104156
6850,108768,104163
6853,108793,104157
6858,108795,104173
6863,108797,104220
6868,108805,104207
6874,108815,104204
6879,108815,104201
6884,108838,104222
6889,108809,104206
6894,108771,104240
6899,108794,104247
6904,108768,104219
6909,108787,104235
6914,108820,104225
6919,108809,104244
6924,108789,104237
6929,108812,104249
6934,108822,104273
6939,108839,104254
6944,108870,104248
6949,108841,104234
6955,108805,104248
6959,108791,104233
6964,108810,104256
6968,108839,104244
6973,108832,104269
6978,108853,104262
6983,108855,104249
6988,108858,104251
6993,108877,104245
6999,108861,104252
7004,108882,104248
7009,108866,104249
7014,108839,104230
7019,108823,104230
7024,108848,104257
7028,108858,104239
7033,108850,104262
7038,108853,104249
7044,108897,104258
7049,108906,104251
7054,108890,104229
7059,108877,104247
7064,108854,104240
7069,108851,104223
7074,108855,104237
7077,108895,104236
7084,108887,104247
7088,108905,104257
7093,108927,104246
7098,108919,104265
7103,108907,104259
7108,108883,104272
7113,108866,104278
7118,108883,104282
7122,108889,104282
7128,108937,104269
7133,108944,104274
7138,108944,104269
7143,108913,104271
7148,108915,104280
7153,108918,104282
7158,108915,104285
7162,108953,104288
7169,108980,104304
7173,108969,104298
7178,108950,104289
7183,108905,104285
7188,108896,104306
7192,108934,104275
7198,108964,104301
7203,108918,104310
7208,108902,104310
7214,108893,104304
7217,108897,104320
7223,108880,104311
7228,108884,104311
7233,108850,104331
7238,108859,104322
7242,108874,104330
7248,108840,104342
7254,108810,104325
7259,108833,104326
7262,108820,104345
7268,108799,104323
7273,108797,104350
7277,108812,104316
7283,108770,104316
7288,108795,104325
7291,108799,104328
7298,108785,104293
7302,108814,104270
7308,108778,104283
7312,108795,104265
7318,108782,104230
7322,108804,104229
7328,108798,104214
7331,108811,104159
7336,108808,104164
7342,108821,104133
7347,108816,104129
7352,108816,104111
7357,108816,104111
7362,108812,104089
7367,108818,104101
7371,108833,104080
7376,108815,104067
7382,108824,104073
7387,108829,104045
7392,108846,104048
7397,108836,104046
7402,108845,104050
7407,108856,104029
7411,108845,104074
7416,108854,104060
7421,108855,104050
7427,108850,104048
7432,108877,104046
7437,108865,104051
7442,108875,104039
7447,108873,104044
7452,108864,104046
7456,108868,104049
7461,108881,104061
7467,108868,104056
7472,108878,104092
7477,108882,104081
7482,108889,104070
7487,108912,104092
7492,108905,104091
7496,108891,104084
7501,108913,104103
7506,108908,104087
7512,108905,104124
7517,108931,104135
7522,108914,104136
7527,108917,104152
7532,108922,104151
7537,108940,104161
7541,108934,104153
7546,108920,104178
7552,108937,104217
7557,108908,104160
7562,108931,104210
7567,108942,104207
7572,108929,104222
7577,108914,104197
7581,108930,104195
7586,108934,104207
7591,108914,104232
7597,108916,104245
7602,108904,104250
7607,108907,104250
7612,108891,104242
7617,108903,104272
7622,108893,104252
7626,108914,104265
7631,108907,104254
7636,108919,104255
7642,108922,104234
7647,108927,104284
7652,108920,104279
7657,108946,104260
7662,108898,104244
7666,108915,104257
7671,108921,104284
7676,108936,104274
7682,108930,104262
7687,108953,104253
7692,108969,104270
7697,108967,104265
7702,108960,104267
7707,108978,104280
7711,108987,104273
7716,108996,104299
7720,109009,104252
7726,108994,104268
7731,109009,104266
7736,109035,104295
7740,109037,104250
7745,109030,104265
7750,109033,104271
7755,109025,104294
7760,109031,104248
7766,109052,104274
7771,109047,104269
7776,109058,104280
7780,109055,104265
7785,109073,104267
7790,109076,104270
7795,109071,104269
7800,109057,104277
7805,109068,104255
7811,109062,104283
7816,109057,104283
7821,109070,104276
7825,109054,104279
7830,109070,104278
7835,109057,104276
7840,109052,104284
7845,109047,104298
7851,109058,104292
7856,109055,104295
7861,109046,104302
7865,109044,104295
7870,109050,104289
7875,109042,104287
7880,109031,104298
7885,109034,104315
7890,109028,104342
7896,109037,104309
7901,109005,104319
7906,109011,104321
7910,109001,104331
7915,109015,104336
7920,108979,104320
7925,108982,104339
7930,108971,104333
7936,108969,104341
7941,108960,104333
7946,108951,104356
7951,108939,104355
7955,108932,104344
7960,108926,104348
7965,108929,104351
7970,108928,104357
7975,108928,104367
7981,108908,104358
7986,108900,104328
7991,108913,104335
7995,108905,104343
8000,108914,104311
8005,108893,104291
8010,108899,104281
8015,108887,104271
8020,108874,104238
8026,108882,104212
8031,108890,104203
8036,108881,104176
8040,108878,104187
8045,108892,104146
8050,108910,104146
8055,108880,104120
8060,108877,104119
8066,108895,104122
8071,108906,104099
8076,108870,104100
8080,108892,104086
8085,108896,104072
8090,108883,104074
8095,108890,104064
8100,108903,104070
8105,108913,104067
8111,108915,104063
8116,108907,104056
8121,108915,104045
8125,108924,104045
8130,108919,104046
8135,108912,104052
8140,108920,104048
8145,108914,104070
8151,108926,104072
8156,108927,104059
8161,108924,104052
8165,108931,104087
8170,108934,104092
8175,108934,104088
8180,108938,104080
8185,108937,104082
8190,108935,104084
8196,108943,104091
8201,108940,104100
8206,108963,104105
8210,108964,104108
8215,108952,104140
8220,108958,104138
8225,108961,104162
8230,108968,104164
8236,108950,104159
8241,108953,104171
8246,108970,104167
8250,108949,104190
8255,108947,104199
8260,108949,104192
8265,108942,104192
8270,108935,104213
8275,108953,104229
8281,108942,104223
8286,108941,104226
8291,108921,104262
8295,108941,104251
8300,108937,104261
8305,108934,104245
8310,108935,104253
8315,108916,104259
8321,108929,104259
8326,108939,104250
8331,108923,104255
8335,108932,104266
8340,108915,104263
8345,108912,104287
8350,108927,104290
8355,108911,104272
8360,108913,104268
8366,108922,104262
8371,108917,104260
8376,108922,104264
8380,108916,104267
8385,108911,104254
8390,108905,104256
8395,108907,104269
8400,108902,104262
8406,108912,104268
8411,108924,104251
8416,108900,104264
8420,108904,104259
8425,108909,104258
8430,108906,104265
8435,108915,104256
8440,108927,104256
8445,108931,104259
8451,108918,104284
8456,108913,104280
8461,108924,104286
8465,108913,104266
8470,108928,104240
8475,108930,104279
8480,108909,104270
8485,108931,104278
8491,108921,104271
8496,108931,104264
8501,108925,104265
8505,108928,104272
8510,108958,104295
8515,108934,104288
8520,108940,104272
8525,108936,104272
8530,108960,104270
8536,108941,104268
8541,108952,104284
8546,108948,104278
8550,108951,104271
8555,108946,104281
8560,108951,104291
8565,108941,104281
8570,108930,104277
8576,108933,104270
8581,108943,104297
8586,108913,104294
8591,108915,104298
8595,108918,104315
8600,108894,104306
8605,108898,104305
8610,108899,104321
8615,108900,104295
8621,108878,104322
8626,108877,104315
8631,108879,104312
8635,108881,104320
8640,108885,104340
8645,108883,104305
8650,108871,104301
8655,108873,104286
8660,108871,104290
8666,108875,104278
8671,108870,104253
8676,108855,104241
8680,108848,104226
8685,108864,104217
8690,108853,104222
8695,108853,104197
8700,108858,104191
8706,108844,104162
8711,108851,104136
8716,108844,104137
8720,108838,104131
8725,108846,104105
8730,108852,104102
8735,108841,104112
8740,108841,104092
8745,108846,104074
8751,108839,104058
8756,108843,104061
8761,108842,104050
8765,108841,104053
8770,108851,104034
8775,108830,104072
8780,108842,104042
8785,108847,104040
8791,108832,104044
8796,108846,104040
8801,108847,104046
8805,108850,104053
8810,108839,104038
8815,108850,104057
8820,108836,104050
8825,108838,104056
8830,108832,104069
8836,108851,104074
8841,108833,104055
8846,108823,104073
8850,108848,104067
8855,108862,104088
8860,108858,104090
8865,108884,104095
8870,108880,104097
8876,108900,104100
8881,108912,104106
8886,108897,104102
8890,108937,104119
8895,108938,104147
8900,108907,104129
8905,108916,104147
8910,108925,104140
8915,108903,104144
8921,108903,104151
8926,108900,104176
8931,108898,104167
8935,108892,104178
8940,108900,104190
8945,108901,104176
8950,108901,104189
8955,108884,104177
8961,108875,104195
8966,108877,104230
8971,108863,104214
8975,108849,104204
8980,108852,104214
8985,108834,104223
8990,108833,104216
8995,108823,104234
9000,108807,104209
9006,108794,104215
9011,108793,104218
9016,108767,104230
9020,108784,104226
9025,108784,104218
9030,108807,104233
9035,108820,104254
9040,108801,104225
9046,108811,104226
9051,108815,104230
9056,108803,104222
9060,108802,104231
9065,108815,104204
9070,108815,104223
9075,108903,104231
9080,108903,104217
9085,108845,104211
9091,108837,104213
9096,108860,104212
9101,108877,104231
9105,108853,104208
9110,108837,104210
9115,108845,104211
9120,108868,104215
9125,108862,104212
9131,108871,104203
9136,108855,104205
9141,108884,104211
9145,108879,104203
9150,108894,104204
9155,108881,104222
9160,108889,104222
9165,108908,104225
9178,108931,104210
9183,108927,104229
9188,108939,104225
9193,108940,104254
9198,108938,104258
9203,108952,104162
9208,108943,104195
9213,108934,104201
9219,108937,104212
9223,108925,104216
9228,108887,104257
9233,108916,104253
9238,108903,104283
9243,108890,104248
9248,108895,104270
9253,108875,104270
9259,108876,104281
9264,108870,104270
9269,108852,104237
9274,108849,104233
9279,108859,104201
9284,108863,104210
9287,108830,104258
9292,108840,104241
9297,108839,104219
9303,108821,104208
9308,108821,104197
9313,108819,104195
9318,108824,104156
9323,108807,104198
9328,108791,104169
9333,108795,104118
9338,108794,104100
9344,108797,104067
9349,108799,104055
9353,108778,104081
9358,108788,104071
9363,108786,104068
9368,108791,104030
9373,108782,104051
9378,108806,104070
9383,108801,104060
9389,108794,104064
9394,108796,104030
9399,108788,103966
9404,108796,103975
9409,108796,103974
9412,108795,103988
9417,108781,103999
9422,108799,103995
9427,108790,103979
9433,108798,103997
9438,108801,103987
9443,108801,104004
9448,108798,104030
9453,108803,104042
9458,108818,104010
9463,108809,103991
9468,108816,103959
9474,108814,103971
9479,108817,103981
9483,108818,103995
9488,108828,104015
9493,108824,104021
9498,108816,104020
9503,108822,104059
9508,108851,104037
9513,108826,104105
9519,108827,104064
9524,108831,104038
9529,108819,104067
9534,108822,104034
9539,108835,104057
9542,108816,104077
9547,108833,104101
9552,108830,104091
9558,108817,104096
9563,108827,104105
9568,108809,104143
9573,108821,104147
9578,108820,104151
9583,108815,104139
9588,108813,104102
9593,108815,104117
9598,108823,104098
9604,108824,104114
9608,108839,104148
9613,108817,104160
9618,108820,104160
9623,108837,104167
9628,108827,104191
9633,108821,104185
9637,108845,104237
9643,108832,104182
9648,108833,104125
9653,108828,104143
9658,108847,104141
9662,108841,104155
9667,108841,104197
9672,108849,104167
9677,108834,104161
9682,108838,104199
9688,108824,104184
9693,108855,104192
9698,108853,104161
9703,108849,104208
9708,108846,104185
9713,108842,104172
9718,108846,104135
9723,108854,104115
9729,108847,104178
9732,108855,104161
9737,108849,104179
9742,108848,104181
9747,108837,104185
9752,108836,104166
9757,108847,104171
9762,108846,104187
9767,108844,104172
9773,108841,104168
9778,108848,104145
9783,108846,104127
9788,108840,104125
9792,108842,104148
9797,108848,104162
9802,108837,104172
9807,108843,104180
9812,108848,104169
9818,108851,104176
9823,108841,104192
9828,108854,104196
9833,108840,104209
9838,108841,104179
9843,108836,104164
9848,108844,104161
9853,108845,104170
9857,108855,104198
9862,108844,104212
9867,108831,104193
9872,108854,104186
9877,108836,104193
9882,108841,104235
9887,108820,104219
9892,108830,104226
9897,108811,104229
9903,108805,104188
9908,108807,104208
9913,108792,104199
9918,108789,104190
9922,108786,104220
9927,108788,104220
9932,108767,104227
9937,108756,104233
9943,108753,104238
9948,108764,104229
9953,108749,104206
9958,108761,104242
9963,108744,104197
9968,108744,104171
9973,108743,104109
9978,108733,104126
9981,108721,104135
9987,108738,104138
9992,108731,104119
9997,108739,104086
10002,108735,104075
10007,108742,104076
10012,108729,104086
10017,108736,103992
10022,108736,103989
10028,108720,103977
10032,108742,104001
10037,108743,104002
10042,108742,103986
10047,108722,103985
10052,108739,104007
10057,108724,104002
10062,108723,103904
10067,108723,103925
10072,108720,103938
10077,108732,103950
10082,108732,103942
10087,108722,103930
10092,108741,103965
10097,108726,103950
10102,108730,103937
10107,108713,103906
10113,108739,103913
10117,108726,103944
10122,108747,103959
10127,108732,103944
10132,108748,103959
10137,108748,103960
10142,108745,103997
10147,108729,103955
10152,108741,103931
10158,108723,103951
10162,108730,103990
10167,108726,103980
10172,108730,103972
10177,108727,103998
10182,108726,104056
10187,108733,103987
10192,108738,103990
10198,108741,103983
10202,108736,104005
10207,108717,104040
10212,108736,104050
10217,108734,104040
10222,108722,104060
10227,108719,104063
10232,108730,104069
10237,108744,104025
10243,108737,104053
10247,108728,104076
10252,108742,104081
10257,108723,104083
10262,108731,104110
10267,108731,104169
10272,108717,104104
10277,108732,104087
10283,108719,104061
10288,108729,104085
10292,108742,104117
10297,108743,104116
10302,108721,104122
10307,108721,104162
10312,108721,104175
10317,108737,104115
10322,108747,104103
10328,108747,104063
10332,108739,104118
10337,108734,104113
10342,108745,104119
10347,108739,104131
10352,108754,104157
10357,108745,104145
10362,108745,104090
10368,108749,104071
10373,108752,104094
10377,108753,104111
10382,108768,104117
10387,108760,104120
10392,108750,104150
10397,108766,104141
10402,108772,104078
10407,108764,104086
10413,108770,104092
10417,108762,104113
10422,108769,104120
10427,108780,104099
10432,108769,104135
10437,108781,104165
10442,108772,104123
10447,108787,104072
10452,108798,104067
10456,108775,104093
10462,108784,104115
10467,108784,104124
10472,108800,104141
10477,108795,104133
10482,108799,104142
10487,108802,104073
10492,108802,104099
10498,108806,104122
10501,108812,104133
10507,108883,104137
10512,108805,104127
10517,108817,104165
10522,108812,104199
10527,108819,104088
10532,108826,104113
10537,108820,104142
10541,108814,104146
10546,108923,104169
10552,108799,104178
10557,108807,104199
10562,108809,104209
10567,108783,104182
10572,108804,104134
10577,108787,104142
10580,108797,104155
10586,108844,104183
10591,108774,104166
10597,108770,104190
10602,108755,104215
10607,108760,104232
10612,108742,104168
10617,108740,104138
10622,108750,104152
10626,108811,104180
10631,108769,104175
10636,108696,104156
10642,108716,104161
10647,108700,104145
10652,108700,104088
10657,108692,104115
10662,108749,104056
10665,108747,104070
10671,108702,104052
10676,108676,104047
10681,108676,104048
10686,108672,104032
10692,108669,104049
10697,108685,103969
10702,108723,103969
10705,108734,103967
10711,108657,103980
10716,108647,103959
10721,108667,103961
10726,108683,103981
10731,108663,103960
10737,108675,103941
10742,108761,103890
10745,108742,103910
10750,108617,103931
10756,108680,103898
10761,108674,103910
10766,108673,103945
10771,108674,103914
10777,108699,103884
10782,108770,103858
10787,108729,103891
10790,108604,103897
10796,108625,103924
10801,108709,103921
10806,108700,103918
10811,108696,103955
10816,108716,103897
10821,108765,103868
10827,108742,103913
10830,108590,103919
10835,108600,103950
10841,108695,103942
10846,108693,103967
10851,108670,103993
10856,108728,103982
10861,108766,103957
10866,108733,103960
10870,108620,103994
10875,108641,104000
10881,108692,103990
10886,108695,104012
10891,108677,104030
10896,108737,104066
10901,108777,103978
10906,108737,103998
10911,108616,104000
10915,108625,104021
10920,108643,104054
10926,108687,104044
10931,108679,104071
10936,108744,104088
10941,108760,104077
10946,108686,104036
10951,108596,104019
10955,108614,104035
10960,108629,104057
10966,108683,104067
10971,108671,104073
10976,108739,104107
10981,108745,104083
10986,108688,104067
10991,108603,104037
10996,108621,104039
11000,108639,104082
11005,108671,104079
11011,108681,104068
11016,108766,104097
11021,108744,104096
11026,108701,104090
11031,108619,104068
11036,108641,104021
11044,108725,104069
11049,108674,103984
11055,108687,104042
11059,108718,103995
11064,108728,104071
11069,108742,104064
11074,108749,104134
11079,108779,104124
11084,108770,104090
11089,108717,103983
11095,108708,104001
11099,108743,104013
11104,108757,104095
11109,108748,104070
11114,108746,104096
11119,108791,104160
11124,108779,104136
11129,108741,104107
11134,108724,104011
11139,108757,104006
11144,108775,104094
11149,108763,104091
11154,108762,104098
11159,108785,104118
11164,108804,104162
11169,108755,104127
11174,108740,104014
11180,108766,104039
11184,108776,104054
11189,108785,104091
11194,108785,104097
11199,108791,104102
11204,108813,104154
11209,108772,104176
11214,108756,104139
11219,108776,104064
11224,108805,104035
11229,108798,104134
11234,108800,104129
11239,108824,104129
11244,108817,104127
11249,108808,104169
11254,108769,104196
11259,108727,104127
11264,108758,104057
11269,108757,104146
11274,108753,104154
11279,108766,104143
11284,108767,104144
11289,108750,104144
11294,108707,104207
11299,108689,104256
11303,108713,104099
11309,108715,104149
11314,108695,104161
11319,108715,104151
11324,108730,104156
11329,108719,104141
11334,108661,104192
11339,108656,104160
11343,108664,104148
11348,108667,104098
11354,108664,104084
11359,108691,104091
11364,108685,104077
11369,108681,104063
11374,108623,104053
11379,108610,104085
11383,108638,104017
11388,108648,103989
11394,108652,103991
11399,108670,103968
11404,108688,103934
11409,108667,103945
11414,108632,103925
11419,108609,103971
11422,108635,103997
11427,108650,103905
11433,108667,103903
11439,108672,103899
11444,108670,103895
11449,108675,103884
11454,108622,103885
11459,108624,103892
11462,108644,104004
11467,108636,103874
11472,108653,103887
11478,108678,103877
11483,108661,103865
11488,108691,103906
11494,108627,103899
11499,108613,103887
11502,108664,103909
11507,108650,103904
11512,108678,103898
11517,108692,103913
11523,108681,103896
11528,108696,103917
11533,108638,103926
11538,108636,103922
11542,108678,103931
11547,108692,103930
11552,108686,103935
11557,108691,103976
11563,108718,103960
11568,108728,103969
11573,108681,103987
11578,108645,103968
11583,108679,103970
11587,108697,103995
11592,108690,103988
11597,108708,103986
11602,108724,104026
11608,108734,104015
11613,108713,104021
11618,108691,104026
11623,108667,104016
11627,108697,104033
11632,108722,104039
11637,108711,104052
11642,108716,104056
11648,108754,104056
11653,108724,104083
11658,108682,104079
11663,108688,104065
11667,108694,104065
11672,108718,104055
11677,108713,104057
11682,108740,104113
11687,108750,104090
11693,108729,104078
11698,108708,104083
11703,108693,104088
11707,108718,104087
11712,108735,104090
11717,108729,104072
11722,108764,104058
11727,108780,104071
11732,108742,104058
11738,108699,104075
11743,108725,104083
11747,108724,104056
11752,108747,104062
11757,108754,104050
11762,108755,104050
11767,108775,104064
11772,108772,104085
11778,108744,104064
11783,108717,104057
11787,108755,104062
11792,108780,104074
11797,108766,104068
11802,108772,104058
11807,108807,104062
11812,108795,104054
11817,108758,104065
11823,108744,104067
11827,108770,104072
11832,108771,104054
11837,108797,104072
11842,108807,104057
11847,108833,104059
11852,108835,104076
11857,108775,104070
11863,108761,104060
11867,108804,104053
11872,108809,104074
11877,108806,104081
11882,108835,104088
11887,108862,104091
11892,108847,104091
11897,108803,104076
11902,108788,104071
11906,108823,104119
11911,108826,104123
11917,108833,104105
11922,108847,104099
11927,108884,104101
11932,108856,104107
11937,108809,104118
11942,108824,104135
11945,108848,104100
11951,108861,104112
11956,108855,104117
11962,108875,104121
11967,108909,104122
11972,108861,104113
11977,108830,104125
11982,108836,104143
11985,108865,104137
11991,108860,104139
11996,108853,104160
12001,108864,104159
12006,108884,104141
12012,108843,104165
12017,108783,104154
12022,108806,104168
12025,108816,104158
12030,108823,104170
12036,108817,104164
12041,108821,104180
12046,108828,104157
12051,108825,104181
12056,108770,104165
12061,108748,104156
12065,108781,104177
12070,108786,104178
12076,108773,104133
12081,108768,104124
12086,108796,104123
12091,108784,104100
12096,108737,104094
12101,108745,104076
12105,108778,104067
12110,108762,104048
12115,108760,104020
12121,108763,104027
12126,108786,104007
12131,108774,103990
12136,108748,103984
12141,108710,103948
12145,108748,103947
12150,108760,103943
12155,108742,103925
12161,108762,103917
12166,108795,103918
12171,108781,103915
12176,108726,103928
12181,108706,103899
12185,108736,103893
12190,108747,103887
12195,108751,103896
12200,108744,103871
12206,108761,103896
12211,108768,103886
12216,108704,103923
12221,108714,103882
12226,108739,103881
12230,108748,103899
12235,108768,103911
12240,108736,103911
12246,108774,103891
12251,108778,103901
12256,108727,103903
12261,108708,103916
12266,108738,103922
12270,108749,103904
12275,108758,103925
12280,108763,103951
12285,108796,103939
12291,108789,103936
12296,108763,103945
12301,108734,103955
12306,108727,103959
12310,108743,103974
12315,108758,103978
12320,108772,104007
12325,108782,103990
12331,108820,103982
12336,108786,103990
12341,108735,104018
12346,108725,104016
12350,108748,104014
12355,108758,104025
12360,108760,104047
12365,108795,104062
12370,108805,104049
12376,108768,104034
12381,108743,104059
12386,108747,104056
12390,108751,104067
12395,108785,104070
12400,108774,104070
12405,108798,104075
12410,108809,104067
12416,108768,104060
12421,108728,104084
12426,108758,104063
12429,108772,104083
12435,108784,104060
12440,108787,104077
12445,108806,104094
12450,108832,104078
12455,108787,104078
12461,108753,104065
12466,108784,104064
12469,108777,104064
12474,108791,104063
12479,108799,104065
12485,108813,104090
12490,108824,104053
12495,108784,104074
12500,108769,104067
12504,108766,104062
12509,108800,104084
12514,108812,104058
12519,108804,104060
12524,108831,104046
12529,108831,104078
12535,108797,104061
12540,108778,104059
12544,108804,104056
12549,108819,104060
12554,108817,104057
12559,108821,104058
12564,108840,104073
12569,108863,104069
12574,108828,104058
12579,108792,104067
12583,108850,104052
12589,108851,104082
12594,108836,104077
12599,108836,104073
12604,108895,104088
12609,108873,104101
12614,108827,104081
12619,108808,104081
12623,108837,104088
12628,108868,104078
12634,108872,104081
12639,108849,104089
12644,108894,104093
12649,108890,104116
12654,108855,104111
12659,108817,104117
12663,108889,104124
12668,108879,104124
12674,108898,104113
12679,108881,104100
12684,108911,104119
12689,108913,104108
12694,108869,104121
12699,108838,104136
12704,108876,104153
12708,108884,104142
12713,108889,104117
12719,108875,104155
12724,108911,104156
12729,108910,104145
12734,108853,104155
12739,108823,104142
12744,108841,104149
12748,108847,104140
12753,108866,104141
12759,108847,104151
12764,108863,104171
12769,108866,104172
12774,108795,104166
12779,108775,104155
12784,108783,104167
12788,108816,104140
12793,108808,104149
12798,108799,104131
12804,108821,104119
12809,108827,104138
12814,108802,104092
12819,108765,104090
12824,108743,104066
12829,108761,104034
12833,108780,104031
12838,108782,104037
12844,108793,104015
12849,108805,103987
12854,108792,103992
12859,108749,103969
12864,108739,103986
12869,108773,103908
12874,108769,103947
12878,108764,103934
12883,108794,103936
12889,108814,103934
12894,108791,103885
12899,108753,103930
12904,108745,103883
12909,108752,103865
12914,108783,103855
12918,108766,103870
12923,108791,103888
12929,108799,103887
12934,108774,103876
12939,108756,103909
12944,108717,103900
12949,108762,103868
12954,108757,103826
12959,108751,103875
12963,108786,103899
12968,108802,103884
12974,108786,103895
12979,108750,103886
12984,108728,103914
12989,108747,103937
12994,108777,103883
12999,108766,103879
13002,108770,103913
13008,108798,103924
13014,108763,103937
13019,108740,103933
13024,108767,103936
13029,108781,103909
13034,108783,103907
13039,108788,103928
13043,108802,103966
13048,108787,103984
13053,108745,104001
13059,108775,103982
13064,108770,104022
13069,108781,104006
13074,108801,103974
13079,108811,103997
13083,108850,104010
13088,108753,104030
13093,108769,104031
13099,108782,104083
13104,108806,104050
13109,108802,104011
13114,108817,104006
13118,108830,104047
13123,108750,104049
13128,108803,104037
13133,108802,104055
13138,108800,104063
13144,108835,104042
13149,108836,104035
13153,108833,104064
13158,108792,104085
13163,108795,104095
13168,108800,104093
13173,108815,104018
13178,108833,104026
13184,108832,104046
13188,108797,104059
13193,108823,104120
13198,108820,104106
13203,108826,104057
13208,108834,104068
13213,108835,104024
13217,108795,104063
13223,108844,104091
13229,108827,104087
13234,108844,104052
13239,108844,104002
13244,108842,104044
13247,108798,104062
13253,108831,104086
13258,108839,104101
13263,108858,104036
13268,108866,104016
13274,108834,104043
13278,108809,104053
13283,108838,104105
13288,108848,104072
13293,108888,104037
13298,108837,104023
13303,108815,104060
13307,108829,104059
13313,108866,104096
13319,108892,104071
13324,108882,104003
13329,108834,104054
13332,108839,104063
13338,108871,104106
13343,108894,104102
13348,108858,104032
13353,108847,104040
13358,108844,104067
13363,108932,104123
13368,108897,104027
13373,108853,104055
13378,108845,104071
13382,108862,104090
13388,108901,104093
13393,108883,104108
13399,108859,104067
13404,108874,104085
13408,108901,104112
13413,108927,104151
13418,108889,104098
13423,108878,104090
13427,108902,104116
13433,108922,104160
13438,108882,104101
13444,108887,104087
13447,108932,104138
13453,108903,104114
13458,108889,104117
13463,108904,104147
13467,108916,104133
13473,108887,104123
13478,108898,104095
13484,108897,104132
13488,108897,104154
13493,108839,104151
13498,108858,104103
13503,108881,104155
13507,108868,104164
13513,108822,104148
13518,108854,104131
13523,108865,104138
13528,108831,104154
13533,108818,104137
13538,108814,104119
13542,108838,104126
13548,108811,104115
13553,108821,104095
13557,108812,104104
13563,108783,104075
13569,108808,104054
13572,108803,104043
13578,108794,104008
13583,108798,103984
13587,108810,104023
13593,108790,103953
13598,108797,103956
13602,108791,103975
13608,108797,103910
13614,108800,103920
13617,108777,103948
13623,108767,103904
13628,108774,103910
13632,108781,103942
13638,108795,103857
13642,108772,103895
13648,108759,103838
13651,108767,103866
13658,108764,103851
13662,108768,103890
13668,108770,103846
13672,108762,103877
13678,108756,103848
13682,108761,103871
13688,108753,103871
13691,108762,103876
13698,108760,103852
13702,108777,103877
13708,108757,103866
13712,108781,103874
13718,108765,103883
13722,108785,103904
13728,108783,103891
13731,108761,103904
13739,108775,103896
13742,108775,103928
13748,108766,103913
13752,108790,103922
13757,108774,103919
13762,108798,103943
13767,108794,103926
13771,108776,103945
13776,108772,103951
13782,108789,103967
13787,108790,103965
13792,108820,103966
13797,108792,103982
13802,108797,103997
13807,108788,104002
13811,108803,104013
13816,108783,104002
13821,108794,104013
13827,108782,104034
13832,108794,104024
13837,108822,104034
13842,108802,104030
13847,108807,104050
13852,108802,104043
13856,108818,104054
13861,108806,104047
13867,108826,104052
13872,108808,104058
13877,108812,104065
13882,108811,104069
13887,108818,104080
13892,108823,104070
13896,108823,104077
13901,108820,104092
13906,108821,104086
13912,108815,104089
13917,108812,104073
13922,108821,104081
13927,108835,104084
13932,108822,104103
13937,108812,104091
13941,108827,104081
13946,108840,104078
13952,108827,104086
13957,108827,104079
13962,108842,104080
13967,108832,104073
13972,108839,104071
13977,108843,104080
13981,108835,104076
13986,108833,104076
13991,108844,104085
13997,108850,104066
14002,108849,104074
14007,108832,104068
14012,108843,104070
14017,108834,104082
14022,108834,104076
14026,108852,104090
14031,108839,104089
14036,108867,104089
14042,108863,104099
14047,108858,104076
14052,108861,104100
14057,108864,104098
14062,108863,104103
14066,108860,104076
14071,108864,104090
14076,108874,104089
14082,108865,104080
14087,108881,104097
14092,108890,104105
14097,108872,104113
14102,108880,104103
14107,108877,104102
14111,108877,104111
14116,108885,104118
14121,108887,104122
14127,108886,104131
14132,108883,104116
14137,108902,104098
14142,108905,104150
14147,108884,104139
14151,108904,104148
14156,108920,104110
14161,108908,104158
14167,108912,104141
14172,108916,104173
14177,108911,104160
14182,108921,104190
14187,108916,104174
14192,108929,104161
14196,108930,104167
14201,108924,104192
14206,108929,104175
14212,108952,104208
14217,108924,104198
14222,108921,104169
14227,108948,104179
14232,108922,104177
14237,108928,104193
14241,108923,104239
14246,108921,104208
14252,108917,104210
14257,108901,104208
14262,108907,104209
14267,108898,104214
14272,108895,104227
14277,108885,104216
14281,108884,104218
14286,108873,104246
14291,108876,104270
14297,108861,104238
14302,108868,104263
14307,108856,104215
14312,108858,104211
14317,108855,104211
14322,108860,104232
14326,108860,104171
14331,108837,104183
14337,108848,104179
14342,108820,104125
14347,108833,104113
14352,108829,104092
14357,108834,104096
14362,108839,104081
14366,108829,104064
14371,108815,104039
14376,108827,104040
14382,108817,104013
14387,108814,103980
14392,108820,104001
14397,108818,103965
14402,108815,103979
14407,108798,103946
14411,108802,103954
14416,108802,103922
14422,108815,103948
14427,108805,103920
14432,108807,103912
14437,108803,103902
14442,108803,103916
14447,108807,103909
14451,108810,103911
14456,108800,103930
14461,108793,103948
14467,108798,103924
14472,108816,103896
14477,108802,103892
14482,108806,103897
14487,108805,103894
14492,108809,103899
14496,108814,103877
14501,108794,103944
14507,108813,103907
14512,108829,103892
14517,108815,103936
14522,108829,103926
14527,108827,103937
14532,108822,103904
14536,108826,103935
14541,108834,103968
14546,108817,103956
14552,108832,103923
14557,108828,103953
14562,108822,103987
14567,108822,103994
14572,108835,103969
14577,108830,104004
14581,108827,104021
14586,108846,103985
14592,108818,104006
14597,108822,104006
14602,108817,104034
14607,108831,104018
14612,108846,104025
14617,108823,104029
14621,108819,104032
14626,108838,104037
14631,108829,104032
14637,108828,104037
14642,108827,104058
14647,108833,104047
14652,108826,104056
14657,108830,104041
14662,108849,104045
14666,108845,104079
14671,108849,104076
14676,108856,104080
14682,108876,104084
14687,108875,104074
14692,108876,104090
14697,108903,104091
14702,108917,104071
14706,108923,104080
14711,108914,104072
14716,108927,104089
14722,108933,104081
14727,108925,104065
14732,108935,104076
14737,108939,104092
14742,108926,104083
14747,108933,104082
14751,108922,104080
14756,108941,104081
14760,108909,104078
14766,108955,104104
14771,108944,104100
14776,108957,104094
14780,108946,104091
14785,108950,104087
14790,108920,104102
14795,108924,104095
14800,108909,104080
14806,108912,104089
14811,108890,104106
14816,108894,104103
14820,108875,104088
14825,108855,104115
14830,108833,104120
14835,108810,104091
14840,108829,104086
14845,108834,104099
14851,108834,104107
14856,108832,104097
14861,108849,104100
14865,108862,104092
14870,108866,104120
14875,108871,104128
14880,108863,104135
14885,108872,104118
14891,108863,104121
14896,108878,104122
14901,108926,104124
14905,108933,104125
14910,108888,104133
14915,108894,104135
14920,108904,104141
14925,108918,104134
14930,108937,104145
14936,108901,104141
14941,108909,104141
14946,108915,104135
14950,108923,104134
14955,108934,104198
14960,108928,104153
14965,108919,104149
14970,108924,104158
14976,108929,104187
14981,108926,104166
14986,108930,104166
14991,108936,104175
14995,108937,104182
15010,108965,104246
15015,108940,104201
15022,108936,104160
15027,108916,104186
15030,108928,104208
15035,108919,104205
15040,108917,104197
15045,108916,104231
15050,108900,104256
15055,108905,104233
15060,108882,104221
15066,108894,104152
15072,108880,104189
15075,108881,104204
15080,108867,104197
15085,108881,104190
15090,108871,104189
15095,108851,104164
15100,108869,104147
15106,108855,104097
15111,108844,104084
15115,108847,104078
15120,108842,104081
15125,108829,104055
15130,108843,104079
15135,108837,104035
15140,108838,104037
15145,108837,103975
15151,108847,103930
15156,108843,103963
15160,108830,103973
15165,108838,103963
15170,108827,103956
15175,108827,103960
15180,108837,103952
15185,108841,103966
15191,108835,103875
15196,108840,103858
15200,108843,103916
15205,108847,103928
15210,108825,103921
15215,108832,103933
15220,108818,103937
15225,108836,103915
15230,108828,103943
15236,108829,103888
15241,108841,103895
15245,108845,103926
15250,108868,103924
15255,108824,103962
15260,108841,103928
15265,108843,103950
15270,108844,103982
15276,108846,103918
15281,108837,103907
15286,108835,103940
15290,108837,103965
15295,108923,104014
15300,108844,103968
15305,108842,104012
15310,108850,104066
15315,108849,104011
15321,108830,104018
15326,108836,103986
15331,108831,104028
15335,108930,104030
15340,108905,104033
15345,108835,104064
15350,108854,104090
15355,108842,104070
15361,108843,104082
15366,108838,104047
15371,108853,104050
15375,108904,104079
15380,108905,104101
15385,108856,104110
15390,108842,104096
15395,108841,104118
15400,108841,104175
15406,108845,104074
15411,108856,104097
15416,108892,104087
15420,108920,104087
15425,108876,104117
15430,108860,104117
15435,108853,104149
15440,108867,104129
15446,108866,104141
15451,108868,104100
15456,108893,104096
15461,108969,104138
15465,108910,104132
15470,108791,104102
15475,108882,104116
15480,108880,104149
15485,108876,104146
15491,108882,104149
15496,108926,104101
15501,108939,104095
15505,108932,104143
15510,108797,104138
15515,108877,104138
15520,108895,104126
15525,108889,104135
15531,108904,104139
15536,108904,104115
15541,108968,104089
15546,108926,104102
15549,108811,104127
15554,108834,104143
15560,108914,104120
15565,108904,104134
15570,108898,104141
15576,108927,104155
15581,108998,104150
15586,108970,104103
15589,108848,104153
15594,108841,104135
15599,108912,104120
15604,108916,104134
15609,108918,104148
15616,108934,104177
15621,108989,104119
15626,108960,104103
15631,108836,104118
15634,108855,104136
15639,108883,104157
15644,108928,104173
15649,108922,104168
15654,108975,104201
15661,109010,104142
15666,108974,104157
15671,108852,104124
15674,108871,104164
15679,108877,104175
15684,108956,104184
15689,108954,104199
15694,108953,104185
15699,109026,104206
15705,108991,104151
15710,108872,104132
15716,108871,104169
15719,108925,104192
15724,108937,104191
15729,108966,104193
15734,108992,104234
15739,109043,104238
15745,109000,104207
15750,108885,104188
15755,108892,104181
15759,108921,104195
15764,108934,104225
15769,108958,104225
15774,108988,104243
15779,109013,104226
15784,108981,104228
15790,108839,104212
15795,108882,104172
15800,108883,104223
15809,108908,104242
15814,108863,104167
15819,108891,104199
15822,108896,104233
15827,108889,104236
15833,108897,104257
15838,108912,104334
15843,108914,104303
15848,108867,104199
15853,108842,104149
15858,108848,104185
15862,108861,104146
15867,108875,104173
15873,108883,104153
15878,108887,104162
15883,108891,104212
15888,108871,104134
15893,108829,103998
15898,108833,103974
15902,108832,104032
15907,108860,104063
15912,108856,104053
15918,108872,104030
15923,108872,104108
15928,108867,104051
15933,108819,104031
15938,108805,103878
15942,108821,103918
15947,108844,103978
15952,108831,103960
15958,108842,103943
15963,108884,104005
15968,108865,104047
15973,108817,103994
15978,108781,103914
15982,108824,103866
15987,108837,103952
15992,108835,103939
15997,108853,103954
16003,108865,103954
16008,108857,103993
16013,108816,104056
16018,108804,104000
16022,108823,103861
16027,108839,103950
16032,108828,103965
16037,108858,103963
16043,108857,103976
16048,108880,103981
16053,108846,104027
16058,108810,104063
16063,108836,104028
16067,108861,103910
16072,108864,104028
16077,108852,104026
16082,108882,104025
16088,108882,104033
16093,108841,104044
16098,108848,104105
16103,108837,104087
16107,108859,104071
16112,108870,104046
16117,108871,104065
16122,108894,104089
16128,108920,104105
16133,108893,104099
16138,108853,104095
16143,108856,104181
16147,108876,104164
16152,108877,104107
16157,108886,104107
16162,108917,104123
16167,108903,104162
16173,108896,104133
16178,108865,104116
16183,108833,104133
16186,108879,104221
16191,108883,104118
16197,108885,104145
16202,108916,104155
16207,108898,104127
16212,108912,104148
16218,108859,104142
16223,108864,104171
16226,108891,104237
16231,108904,104147
16236,108891,104160
16241,108918,104141
16247,108932,104152
16252,108913,104177
16258,108899,104154
16263,108891,104148
16266,108919,104210
16271,108898,104175
16276,108910,104162
16281,108953,104156
16286,108946,104143
16291,108933,104152
16297,108904,104149
16303,108897,104162
16306,108920,104168
16311,108937,104160
16316,108940,104166
16321,108962,104135
16326,108971,104145
16331,108969,104165
16336,108926,104162
16342,108925,104133
16346,108932,104146
16351,108961,104167
16356,108949,104161
16361,108957,104148
16366,108972,104192
16371,108991,104174
16376,108948,104169
16381,108922,104167
16386,108939,104188
16391,108959,104174
16396,108982,104176
16401,108971,104179
16406,108995,104187
16411,108998,104171
16416,108960,104188
16421,108940,104184
16427,108962,104185
16431,108980,104205
16436,108981,104196
16441,108992,104206
16446,108995,104220
16451,109012,104217
16456,108990,104211
16461,108961,104232
16466,108959,104224
16471,108985,104230
16476,108983,104212
16481,109000,104218
16486,108975,104203
16491,109010,104221
16496,109009,104221
16501,108979,104223
16506,108956,104216
16510,108953,104227
16516,108967,104215
16521,108979,104247
16526,108970,104228
16531,108992,104240
16536,108980,104256
16541,108934,104280
16546,108907,104246
16551,108914,104248
16556,108932,104257
16561,108911,104273
16566,108916,104288
16571,108938,104274
16576,108946,104252
16581,108888,104258
16586,108856,104258
16591,108898,104251
16595,108894,104221
16601,108886,104237
16606,108882,104187
16611,108923,104187
16616,108917,104161
16621,108887,104153
16626,108855,104125
16631,108876,104115
16634,108882,104080
16640,108896,104093
16646,108893,104074
16651,108895,104058
16656,108911,104047
16661,108912,104029
16666,108861,104027
16671,108835,104022
16674,108860,103988
16679,108875,103998
16685,108870,103976
16690,108900,103999
16695,108905,103963
16700,108889,103974
16706,108853,103971
16711,108861,103957
16714,108838,103981
16719,108868,103963
16724,108872,103967
16730,108882,103959
16735,108910,103970
16740,108892,103980
16745,108859,103962
16750,108827,103961
16754,108861,103987
16759,108872,103963
16764,108874,103977
16770,108883,103983
16775,108882,104000
16780,108898,103997
16785,108848,104009
16790,108842,104012
16795,108848,104009
16799,108880,104029
16804,108877,104010
16809,108886,104024
16815,108893,104052
16820,108910,104052
16825,108901,104053
16830,108855,104059
16835,108863,104067
16839,108883,104087
16844,108883,104098
16849,108881,104109
16855,108908,104113
16860,108911,104119
16865,108913,104123
16870,108853,104127
16875,108864,104133
16879,108879,104123
16884,108885,104142
16889,108886,104142
16894,108893,104165
16900,108911,104182
16905,108912,104169
16910,108881,104167
16915,108840,104167
16920,108885,104172
16924,108913,104168
16929,108908,104179
16934,108905,104189
16940,108955,104171
16945,108934,104178
16950,108908,104188
16955,108877,104202
16960,108897,104198
16964,108929,104198
16969,108926,104196
16974,108928,104188
16979,108945,104194
16985,108963,104214
16990,108920,104189
16995,108880,104198
17000,108912,104189
17004,108922,104206
17009,108938,104202
17014,108942,104200
17019,108956,104176
17025,108973,104181
17030,108913,104196
17035,108896,104178
17040,108917,104198
17043,108928,104174
17049,108957,104185
17054,108942,104201
17059,108969,104181
17064,108963,104188
17070,108959,104189
17075,108925,104191
17080,108933,104173
17083,108945,104181
17088,108953,104182
17093,108948,104186
17099,108966,104180
17104,108970,104208
17110,108935,104206
17115,108922,104211
17120,108928,104187
17123,108954,104188
17128,108953,104193
17133,108965,104195
17138,108990,104201
17143,108999,104198
17148,108982,104211
17154,108948,104192
17160,108956,104213
17163,108978,104216
17168,108974,104212
17173,108973,104216
17178,109004,104219
17183,109008,104219
17188,109008,104225
17193,108966,104235
17199,108961,104246
17203,108982,104226
17208,108993,104238
17213,108977,104229
17218,108998,104237
17223,109016,104235
17228,108995,104250
17233,108956,104264
17239,108922,104266
17243,108957,104242
17248,108945,104242
17253,108950,104260
17258,108955,104266
17263,108948,104278
17268,108952,104262
17273,108901,104279
17278,108883,104278
17283,108904,104263
17288,108903,104265
17293,108915,104260
17298,108915,104267
17303,108922,104259
17308,108928,104260
17313,108889,104229
17318,108837,104217
17324,108861,104201
17328,108879,104184
17333,108898,104176
17338,108896,104174
17343,108901,104122
17348,108911,104121
17353,108845,104107
17358,108824,104106
17363,108829,104078
17368,108865,104079
17373,108880,104047
17378,108872,104034
17383,108878,104057
17388,108925,104024
17393,108899,104010
17398,108843,104013
17403,108817,104016
17408,108870,104017
17413,108884,103989
17418,108875,103981
17423,108915,103983
17428,108945,104013
17433,108927,103977
17438,108893,103991
17443,108867,103967
17447,108891,103994
17453,108918,103977
17458,108912,103987
17463,108912,103985
17468,108951,103971
17473,108924,103991
17478,108908,103995
17483,108892,103991
17486,108912,104012
17491,108930,104015
17498,108930,104030
17503,108936,104018
17508,108962,104038
17513,108956,104032
17518,108922,104023
17523,108888,104040
17526,108902,104052
17531,108932,104049
17537,108944,104065
17542,108933,104084
17548,108940,104059
17553,108952,104077
17558,108892,104094
17563,108876,104081
17566,108891,104066
17571,108905,104101
17576,108915,104104
17582,108904,104119
17587,108902,104129
17592,108930,104131
17597,108878,104135
17603,108881,104133
17608,108878,104116
17611,108900,104145
17616,108898,104153
17622,108893,104151
17627,108924,104157
17632,108927,104157
17637,108889,104160
17642,108872,104163
17647,108894,104163
17652,108905,104154
17656,108904,104158
17661,108909,104182
17667,108957,104188
17672,108945,104161
17677,108907,104172
17682,108873,104164
17687,108903,104169
17692,108936,104126
17697,108905,104147
17701,108913,104180
17707,108919,104180
17712,108957,104183
17717,108915,104175
17722,108871,104165
17727,108893,104197
17732,108916,104140
17737,108912,104140
17741,108921,104159
17746,108946,104176
17752,108960,104166
17757,108931,104172
17762,108922,104183
17767,108905,104161
17772,108928,104156
17777,108918,104133
17782,108942,104145
17786,108978,104176
17792,108975,104171
17797,108953,104169
17802,108929,104180
17807,108923,104180
17812,108946,104200
17817,108944,104185
17822,108965,104148
17827,108975,104169
17831,108987,104188
17837,108978,104193
17842,108950,104183
17847,108933,104189
17852,108941,104254
17857,108995,104202
17862,108966,104182
17867,108961,104162
17872,108980,104190
17876,108977,104207
17882,108930,104221
17887,108910,104207
17892,108921,104214
17897,108927,104230
17902,108935,104219
17907,108927,104204
17912,108949,104184
17916,108928,104212
17922,108896,104233
17927,108854,104231
17932,108863,104235
17937,108863,104261
17942,108864,104251
17947,108858,104231
17952,108872,104202
17957,108879,104175
17961,108853,104205
17967,108824,104201
17972,108806,104181
17977,108828,104220
17982,108811,104206
17987,108812,104188
17992,108846,104143
17997,108849,104102
18002,108833,104106
18007,108801,104107
18012,108790,104105
18017,108815,104094
18022,108813,104126
18027,108830,104100
18032,108847,104072
18037,108880,104021
18042,108866,104002
18048,108815,104016
18051,108821,103998
18057,108846,104012
18062,108858,104009
18067,108866,104047
18072,108870,104027
18077,108884,103987
18082,108901,103961
18087,108870,103938
18091,108840,103977
18096,108867,103987
18101,108880,103983
18107,108873,104005
18112,108905,104049
18117,108922,103999
18122,108912,103936
18127,108859,103941
18132,108844,103984
18136,108872,103996
18141,108864,103993
18146,108876,104009
18151,108894,104021
18157,108884,104039
18162,108879,103988
18167,108846,103995
18172,108832,104016
18176,108859,104029
18181,108861,104041
18186,108862,104051
18191,108879,104064
18196,108893,104063
18201,108877,104070
18207,108831,104041
18212,108805,104061
18217,108813,104087
18221,108841,104098
18226,108845,104095
18231,108829,104093
18236,108856,104148
18241,108862,104151
18246,108808,104153
18251,108796,104125
18256,108815,104098
18260,108819,104129
18266,108813,104158
18271,108808,104160
18276,108817,104164
18281,108852,104192
18286,108797,104190
18291,108770,104179
18296,108789,104156
18301,108806,104160
18306,108816,104169
18311,108823,104209
18316,108838,104191
18321,108851,104179
18326,108809,104232
18331,108774,104244
18336,108790,104180
18341,108814,104186
18347,108818,104166
18351,108833,104208
18356,108874,104211
18361,108861,104199
18366,108838,104209
18371,108808,104244
18376,108816,104206
18381,108837,104204
18386,108846,104170
18392,108856,104171
18396,108850,104199
18401,108897,104201
18406,108874,104196
18411,108849,104234
18416,108828,104220
18421,108847,104193
18426,108871,104199
18432,108868,104170
18437,108869,104176
18441,108877,104193
18446,108912,104190
18451,108863,104209
18456,108843,104208
18461,108863,104231
18466,108900,104220
18471,108889,104147
18477,108907,104147
18482,108898,104197
18486,108907,104197
18491,108878,104189
18496,108847,104206
18501,108891,104240
18506,108896,104237
18511,108898,104254
18516,108892,104217
18522,108889,104189
18526,108880,104214
18531,108897,104242
18536,108861,104233
18541,108834,104252
18546,108863,104267
18551,108878,104253
18556,108866,104266
18562,108855,104196
18567,108848,104212
18571,108841,104246
18576,108814,104264
18581,108804,104245
18586,108832,104290
18591,108819,104261
18596,108826,104308
18601,108832,104262
18607,108817,104217
18612,108803,104248
18616,108795,104271
18621,108770,104242
18626,108790,104220
18631,108790,104265
18636,108806,104261
18641,108807,104249
18647,108798,104136
18652,108804,104144
18655,108773,104154
18660,108770,104133
18665,108775,104124
18671,108795,104129
18676,108801,104112
18681,108800,104091
18686,108826,104078
18692,108811,103998
18697,108803,104040
18700,108803,104047
18705,108793,104025
18710,108806,104012
18716,108826,104014
18721,108805,104057
18726,108811,104014
18732,108834,103965
18737,108817,103964
18740,108834,104004
18745,108820,104007
18750,108847,103991
18755,108827,104037
18761,108842,104045
18766,108846,103991
18771,108849,104002
18777,108843,103944
18780,108861,103979
18785,108864,104024
18790,108862,104010
18795,108869,103997
18800,108876,104021
18805,108877,104048
18810,108856,104058
18817,108854,104007
18822,108856,104007
18825,108858,104035
18830,108862,104038
18835,108846,104067
18840,108867,104061
18845,108865,104100
18850,108855,104110
18855,108845,104062
18861,108847,104066
18866,108845,104075
18870,108833,104094
18875,108841,104105
18880,108837,104118
18885,108828,104147
18890,108838,104156
18895,108825,104154
18900,108825,104121
18906,108819,104109
18910,108837,104136
18915,108817,104164
18920,108842,104186
18925,108838,104182
18930,108826,104203
18935,108837,104250
18940,108840,104199
18946,108848,104157
18951,108861,104165
18955,108872,104215
18960,108870,104211
18965,108890,104202
18970,108885,104227
18975,108895,104220
18980,108892,104218
18985,108891,104212
18991,108899,104172
18996,108911,104201
19000,108904,104218
19005,108916,104207
19010,108905,104216
19015,108915,104240
19020,108921,104240
19025,108923,104244
19031,108921,104220
19036,108927,104185
19041,108921,104195
19045,108912,104220
19050,108929,104213
19055,108918,104239
19060,108919,104237
19065,108926,104268
19070,108909,104220
19076,108909,104215
19081,108906,104191
19085,108905,104213
19090,108903,104216
19095,108912,104229
19100,108891,104217
19105,108890,104244
19110,108908,104267
19116,108905,104226
19121,108906,104205
19126,108908,104191
19130,108934,104215
19135,108909,104232
19140,108923,104240
19145,108910,104242
19150,108919,104233
19155,108916,104265
19161,108916,104196
19166,108923,104240
19171,108923,104212
19175,108932,104234
19180,108924,104260
19185,108926,104246
19190,108918,104273
19195,108921,104263
19201,108917,104266
19206,108918,104227
19211,108913,104181
19216,108905,104246
19220,108908,104252
19225,108908,104253
19230,108903,104264
19235,108888,104269
19240,108877,104259
19246,108873,104277
19251,108882,104217
19256,108878,104227
19259,108880,104219
19264,108858,104222
19270,108856,104199
19275,108849,104189
19280,108839,104186
19286,108843,104173
19291,108839,104131
19296,108842,104087
19301,108818,104096
19304,108826,104086
19309,108822,104093
19314,108817,104106
19320,108810,104096
19325,108809,104076
19331,108809,104073
19336,108810,104020
19341,108811,104026
19344,108813,104022
19349,108820,104040
19354,108802,104044
19359,108805,104044
19364,108837,104024
19371,108823,104060
19376,108828,103985
19381,108829,103995
19384,108829,104011
19389,108829,104011
19394,108835,104028
19399,108836,104032
19404,108837,104041
19409,108856,104019
19415,108845,104008
19421,108859,103962
19426,108843,104011
19429,108829,104055
19434,108847,104043
19439,108847,104044
19444,108839,104081
19449,108829,104081
19454,108844,104104
19460,108830,104067
19465,108834,104039
19470,108842,104077
19474,108828,104090
19479,108838,104084
19484,108836,104096
19489,108833,104108
19494,108843,104140
19500,108834,104130
19505,108832,104107
19510,108857,104087
19514,108859,104108
19519,108841,104132
19524,108855,104149
19529,108844,104149
19534,108853,104171
19539,108847,104217
19545,108853,104145
19550,108854,104130
19555,108859,104134
19559,108860,104164
19564,108855,104166
19569,108868,104186
19574,108869,104185
19579,108871,104190
19585,108877,104219
19590,108873,104158
19595,108866,104135
19600,108862,104154
19604,108864,104173
19609,108875,104172
19614,108880,104179
19619,108869,104177
19624,108876,104211
19630,108881,104207
19635,108895,104152
19640,108896,104145
19645,108907,104164
19649,108912,104185
19654,108909,104186
19659,108901,104160
19664,108911,104219
19670,108905,104206
19675,108924,104197
19680,108920,104131
19685,108908,104138
19690,108915,104168
19694,108925,104191
19699,108924,104193
19704,108921,104183
19709,108921,104200
19715,108912,104192
19720,108910,104209
19725,108930,104167
19730,108927,104170
19735,108921,104177
19739,108921,104200
19744,108934,104206
19749,108928,104200
19755,108909,104228
19760,108936,104226
19765,108938,104210
19770,108926,104175
19775,108935,104172
19779,108920,104191
19784,108925,104204
19789,108900,104208
19794,108894,104225
19800,108899,104235
19805,108892,104213
19810,108883,104222
19815,108880,104175
19820,108880,104238
19824,108876,104227
19829,108878,104231
19834,108862,104227
19840,108857,104215
19845,108844,104229
19850,108847,104218
19855,108863,104141
19860,108836,104143
19865,108841,104155
19868,108840,104179
19873,108839,104151
19878,108825,104145
19885,108846,104148
19890,108837,104134
19895,108843,104113
19900,108857,104080
19905,108817,104041
19908,108840,104067
19913,108836,104065
19918,108829,104033
19923,108829,104039
19930,108850,104046
19935,108824,104044
19940,108828,103988
19945,108833,103966
19950,108830,103986
19953,108820,104013
19958,108844,103987
19963,108813,104013
19969,108846,104012
19974,108829,104021
19979,108844,104013
19985,108830,103966
19990,108842,103968
19993,108838,103995
19998,108836,104016
20003,108835,104038
20008,108844,104034
20014,108838,104035
20019,108823,104025
20024,108822,103974
20029,108835,103992
20034,108836,103999
20038,108812,104044
20043,108932,104052
20048,108823,104028
20054,108822,104077
20059,108832,104071
20064,108828,104079
20069,108841,104047
20074,108842,104005
20079,108824,104069
20083,108896,104082
20088,108917,104122
20093,108827,104120
20099,108831,104122
20104,108839,104137
20109,108832,104129
20114,108844,104104
20119,108846,104106
20124,108842,104121
20128,108919,104152
20133,108894,104152
20139,108834,104173
20144,108842,104182
20149,108842,104173
20154,108839,104190
20159,108835,104122
20164,108859,104138
20169,108947,104160
20173,108886,104188
20178,108812,104207
20184,108859,104179
20189,108857,104222
20194,108859,104213
20199,108856,104196
20204,108840,104151
20209,108939,104172
20213,108909,104174
20218,108850,104194
20224,108864,104181
20229,108867,104187
20234,108876,104235
20239,108868,104223
20244,108873,104140
20249,108919,104177
20254,108946,104158
20258,108898,104175
20263,108798,104199
20269,108890,104185
20274,108884,104170
20279,108884,104226
20284,108878,104195
20289,108926,104172
20294,108969,104168
20299,108917,104178
20303,108789,104199
20308,108842,104203
20314,108889,104197
20319,108895,104208
20324,108889,104226
20329,108917,104235
20334,108988,104143
20339,108962,104150
20344,108867,104166
20348,108843,104195
20354,108875,104201
20359,108923,104199
20364,108910,104197
20369,108923,104238
20374,108986,104220
20379,108952,104181
20384,108859,104188
20388,108835,104208
20393,108867,104215
20399,108908,104222
20404,108870,104264
20409,108895,104243
20414,108966,104248
20419,108919,104214
20424,108814,104189
20429,108781,104215
20432,108808,104219
20439,108807,104221
20444,108854,104241
20449,108876,104270
20454,108916,104198
20459,108876,104170
20464,108723,104147
20469,108763,104167
20472,108780,104177
20478,108787,104158
20484,108806,104143
20489,108916,104156
20494,108878,104120
20499,108778,104106
20504,108754,104065
20509,108765,104069
20517,108806,104061
20523,108764,104199
20528,108765,104008
20532,108787,104033
20537,108794,104041
20542,108784,104053
20547,108807,104117
20552,108809,104063
20557,108797,103999
20562,108753,103937
20568,108746,104264
20572,108758,103945
20577,108773,104003
20582,108748,104000
20587,108762,104035
20592,108781,104061
20597,108789,104025
20602,108744,103940
20608,108713,103909
20611,108755,103951
20616,108777,104004
20622,108787,103989
20627,108801,104015
20632,108805,104104
20637,108800,104085
20642,108770,104018
20647,108743,103949
20651,108788,103935
20656,108775,104037
20661,108800,104030
20666,108804,104059
20672,108842,104100
20677,108819,104090
20682,108777,104100
20687,108774,103969
20690,108804,103981
20696,108804,104076
20701,108812,104099
20706,108822,104097
20711,108832,104103
20716,108826,104183
20721,108783,104181
20727,108782,104170
20730,108810,104038
20736,108823,104162
20741,108829,104144
20746,108855,104159
20751,108870,104160
20756,108856,104216
20761,108824,104244
20766,108804,104217
20770,108841,104161
20775,108856,104194
20781,108863,104204
20786,108878,104197
20791,108884,104213
20796,108894,104211
20801,108868,104234
20806,108859,104305
20811,108875,104303
20815,108902,104191
20820,108894,104203
20826,108911,104210
20831,108935,104225
20836,108941,104212
20841,108930,104232
20846,108882,104266
20851,108901,104297
20855,108946,104254
20860,108972,104198
20866,108955,104207
20871,108973,104219
20876,109002,104217
20881,108980,104228
20886,108965,104225
20891,108961,104274
20895,108977,104264
20900,109004,104223
20905,108998,104206
20911,109052,104189
20916,109063,104211
20921,109047,104214
20926,109015,104227
20931,108972,104182
20935,109036,104251
20940,109040,104202
20945,109036,104212
20951,109072,104212
20956,109080,104210
20961,109070,104213
20966,109036,104212
20971,109028,104207
20975,109069,104224
20980,109075,104216
20985,109071,104224
20990,109109,104217
20996,109127,104226
21001,109097,104243
21006,109047,104223
21011,109030,104218
21015,109062,104225
21020,109047,104245
21025,109055,104247
21030,109042,104243
21036,109069,104226
21041,109056,104263
21046,109015,104233
21051,108992,104261
21054,108997,104249
21059,109021,104248
21065,109015,104248
21070,109034,104250
21075,109030,104230
21081,109021,104242
21086,108954,104219
21091,108934,104202
21094,108961,104192
21099,108966,104181
21104,108962,104172
21109,108953,104150
21114,108955,104129
21120,108966,104137
21126,108916,104097
21131,108903,104079
21134,108913,104082
21139,108932,104056
21144,108922,104067
21149,108920,104051
21154,108942,104074
21159,108943,104031
21165,108902,104038
21170,108878,104017
21175,108872,104020
21179,108906,104003
21184,108922,104005
21189,108912,104005
21194,108919,104009
21199,108926,103998
21204,108908,103992
21210,108881,103978
21215,108885,103993
21219,108914,103998
21224,108921,104012
21229,108905,104012
21234,108940,104000
21239,108950,103996
21244,108935,104002
21250,108891,104028
21255,108865,103996
21259,108908,104012
21264,108902,104036
21269,108894,104020
21274,108902,104010
21279,108917,104032
21284,108934,104026
21289,108880,104035
21295,108849,104049
21300,108890,104046
21304,108905,104057
21309,108903,104077
21314,108899,104065
21319,108922,104077
21324,108935,104092
21329,108891,104097
21335,108864,104055
21340,108890,104076
21344,108912,104110
21349,108894,104083
21354,108909,104100
21359,108921,104107
21364,108925,104129
21369,108912,104109
21374,108864,104116
21380,108875,104118
21384,108899,104146
21389,108922,104142
21394,108904,104150
21399,108932,104143
21404,108940,104143
21409,108903,104170
21414,108866,104132
21420,108905,104136
21424,108926,104135
21429,108930,104141
21434,108931,104131
21439,108953,104151
21444,108971,104126
21449,108938,104151
21454,108897,104143
21459,108927,104135
21463,108954,104174
21468,108958,104139
21474,108956,104142
21479,108981,104140
21484,108992,104139
21489,108955,104149
21494,108947,104147
21499,108947,104144
21502,108943,104144
21508,108955,104150
21513,108961,104151
21518,108980,104151
21524,108976,104156
21529,108941,104153
21534,108904,104168
21539,108926,104156
21542,108950,104147
21548,108962,104151
21554,108988,104152
21559,108999,104174
21564,108976,104146
21569,108939,104152
21574,108927,104140
21577,108966,104160
21583,108992,104155
21588,108999,104162
21594,108980,104182
21599,108932,104165
21604,108927,104177
21607,108925,104173
21613,108953,104172
21618,108961,104167
21623,108900,104183
21628,108862,104206
21634,108882,104182
21638,108883,104177
21643,108897,104189
21648,108882,104195
21653,108842,104182
21658,108831,104187
21662,108840,104172
21668,108847,104185
21673,108813,104155
21679,108805,104158
21682,108826,104149
21688,108842,104140
21693,108796,104129
21698,108783,104116
21702,108810,104119
21708,108804,104100
21713,108775,104073
21719,108812,104057
21723,108832,104047
21728,108800,104059
21733,108788,104029
21737,108822,104016
21743,108775,104022
21748,108791,104027
21752,108806,104012
21758,108781,104000
21762,108795,104007
21768,108787,104006
21772,108806,104005
21778,108781,103989
21782,108804,103977
21788,108801,103999
21792,108808,104008
21798,108790,103980
21801,108804,103971
21807,108813,103988
21812,108818,103980
21817,108810,103983
21822,108801,103994
21827,108807,103985
21831,108811,103999
21836,108811,103991
21841,108819,103998
21847,108827,104009
21852,108829,104010
21857,108827,104007
21862,108830,104021
21867,108844,104029
21872,108828,104018
21876,108834,104025
21881,108840,104041
21886,108846,104047
21892,108830,104062
21897,108837,104063
21902,108826,104066
21907,108839,104083
21912,108843,104081
21917,108827,104086
21921,108848,104079
21926,108840,104108
21932,108833,104109
21937,108846,104092
21942,108849,104104
21947,108865,104128
21952,108876,104125
21957,108875,104120
21961,108857,104135
21966,108868,104112
21971,108887,104163
21977,108882,104147
21982,108867,104152
21987,108888,104169
21992,108889,104158
21997,108897,104170
22002,108906,104149
22006,108898,104175
22011,108905,104161
22017,108931,104148
22022,108903,104181
22027,108903,104158
22032,108918,104162
22037,108903,104158
22042,108895,104158
22046,108893,104157
22051,108889,104154
22056,108878,104166
22062,108855,104164
22067,108856,104160
22072,108847,104169
22077,108849,104160
22082,108850,104153
22087,108859,104155
22091,108842,104155
22096,108848,104171
22102,108857,104174
22107,108839,104173
22112,108836,104163
22117,108840,104154
22122,108844,104198
22127,108856,104176
22131,108865,104188
22136,108861,104164
22141,108867,104177
22147,108866,104184
22152,108884,104168
22157,108879,104167
22162,108901,104197
22165,108895,104157
22170,108886,104155
22175,108880,104169
22180,108889,104177
22185,108893,104165
22191,108898,104175
22196,108884,104189
22201,108872,104183
22205,108880,104199
22210,108875,104206
22215,108871,104205
22220,108853,104219
22225,108860,104192
22231,108868,104199
22236,108847,104194
22241,108835,104195
22245,108855,104195
22250,108844,104201
22255,108827,104193
22260,108830,104182
22265,108813,104215
22270,108810,104175
22276,108805,104171
22281,108815,104164
22286,108798,104163
22290,108818,104132
22295,108792,104132
22300,108814,104099
22305,108803,104109
22310,108805,104086
22316,108794,104066
22321,108789,104058
22326,108787,104052
22330,108777,104055
22335,108794,104035
22340,108788,104016
22345,108782,104016
22350,108785,104025
22355,108778,104024
22361,108793,103993
22366,108782,103993
22371,108806,104015
22375,108792,103994
22380,108801,103986
22385,108778,103992
22390,108784,103988
22395,108794,103992
22401,108781,103991
22406,108794,103999
22411,108790,103988
22415,108785,104015
22420,108799,104004
22425,108805,103997
22430,108792,104007
22435,108796,104018
22440,108801,104000
22446,108794,103981
22451,108813,104024
22456,108806,104015
22460,108805,104021
22465,108792,104027
22470,108812,104036
22475,108805,104043
22480,108824,104050
22486,108818,104047
22491,108818,104071
22496,108822,104054
22500,108833,104069
22505,108826,104079
22510,108821,104083
22515,108808,104093
22520,108810,104088
22525,108836,104122
22531,108815,104117
22536,108826,104121
22541,108812,104098
22545,108832,104146
22550,108834,104148
22555,108837,104145
22560,108834,104131
22565,108839,104146
22571,108840,104153
22576,108843,104135
22581,108842,104173
22585,108833,104153
22590,108851,104150
22595,108842,104150
22600,108832,104168
22605,108858,104175
22610,108848,104149
22616,108847,104158
22621,108844,104175
22626,108830,104156
22630,108848,104165
22635,108843,104161
22640,108859,104154
22645,108846,104145
22650,108860,104151
22656,108860,104171
22661,108869,104167
22666,108884,104159
22671,108870,104155
22675,108881,104163
22680,108879,104167
22685,108865,104146
22690,108881,104156
22695,108887,104153
22701,108871,104162
22706,108885,104163
22711,108888,104167
22715,108901,104171
22720,108885,104189
22725,108907,104178
22730,108895,104165
22735,108905,104183
22740,108910,104170
22746,108913,104181
22751,108892,104173
22756,108907,104169
22760,108916,104180
22765,108921,104185
22770,108917,104174
22775,108921,104152
22780,108922,104170
22786,108920,104181
22791,108898,104208
22796,108909,104190
22800,108901,104182
22805,108881,104185
22810,108893,104217
22815,108891,104205
22820,108891,104204
22825,108880,104213
22831,108874,104203
22836,108865,104202
22841,108850,104201
22845,108838,104219
22850,108829,104224
22855,108845,104196
22860,108847,104202
22865,108842,104195
22871,108817,104202
22876,108815,104174
22881,108820,104166
22885,108803,104144
22890,108812,104145
22895,108801,104127
22900,108802,104136
22905,108796,104133
22910,108785,104105
22916,108786,104097
22921,108784,104074
22926,108802,104067
22930,108798,104074
22935,108812,104062
22940,108797,104050
22945,108790,104032
22950,108797,104022
22956,108794,104017
22961,108787,104021
22966,108781,104025
22970,108800,104039
22975,108787,104018
22980,108795,104008
22985,108810,104010
22990,108787,104011
22995,108792,104028
23001,108780,104007
23006,108787,104022
23011,108794,104031
23015,108795,104033
23020,108795,104039
23025,108800,104014
23030,108815,104041
23035,108820,104026
23041,108819,104041
23046,108815,104034
23051,108826,104041
23055,108825,104068
23060,108818,104079
23065,108832,104041
23070,108816,104079
23075,108834,104081
23080,108832,104098
23086,108830,104095
23091,108830,104113
23096,108827,104105
23100,108832,104131
23105,108848,104119
23110,108832,104121
23115,108863,104121
23120,108856,104146
23126,108860,104149
23131,108868,104148
23136,108869,104164
23140,108879,104185
23145,108862,104172
23150,108894,104188
23155,108896,104193
23160,108904,104190
23165,108907,104175
23171,108903,104197
23176,108910,104194
23181,108918,104197
23185,108926,104211
23190,108915,104216
23195,108927,104207
23200,108929,104206
23205,108954,104226
23211,108957,104212
23216,108947,104221
23221,108951,104212
23225,108963,104213
23230,108953,104219
23235,108982,104217
23240,108958,104215
23245,108994,104232
23250,108985,104219
23256,108991,104207
23261,109009,104229
23266,109032,104199
23270,109060,104216
23275,109057,104235
23280,109094,104239
23285,109077,104217
23290,109062,104232
23296,109067,104231
23301,109068,104237
23306,109055,104249
23311,109066,104239
23315,109052,104252
23320,109041,104277
23325,109053,104248
23330,109071,104238
23335,109078,104264
23341,109081,104268
23346,109063,104271
23351,109063,104286
23355,109032,104266
23360,109032,104262
23365,109004,104269
23370,108990,104283
23375,109014,104285
23380,108966,104285
23386,108940,104280
23391,108938,104275
23396,108939,104276
23400,108942,104278
23405,108936,104291
23410,108935,104269
23415,108959,104273
23420,108926,104283
23426,108941,104284
23431,108940,104300
23436,108945,104303
23440,108922,104305
23445,108910,104296
23450,108904,104275
23455,109067,104281
23460,109068,104307
23465,108920,104292
23471,108918,104290
23476,108915,104278
23481,108921,104258
23485,108892,104268
23490,108889,104262
23495,108895,104258
23500,108908,104251
23505,108901,104239
23511,108894,104199
23516,108886,104191
23521,108883,104172
23525,108882,104173
23530,108904,104149
23535,108900,104131
23540,108896,104120
23555,108931,104082
23560,108902,104056
23565,108921,104074
23569,108913,104074
23574,108912,104071
23579,108911,104066
23584,108922,104072
23589,108914,104089
23595,108919,104050
23600,108915,104032
23605,108912,104028
23609,108906,104028
23614,108929,104041
23619,108919,104036
23624,108919,104049
23629,108929,104094
23634,108934,104075
23640,108927,104029
23645,108927,104020
23650,108921,104027
23654,108938,104052
23659,108931,104085
23664,108941,104084
23669,108928,104100
23674,108935,104127
23680,108947,104104
23685,108941,104061
23690,108932,104051
23695,108945,104109
23698,108915,104111
23703,108947,104123
23708,108944,104109
23714,108935,104135
23719,108937,104210
23725,108944,104133
23730,108946,104135
23735,108948,104126
23738,108947,104179
23743,108944,104160
23748,108944,104175
23753,108936,104161
23758,108938,104177
23764,108938,104230
23770,108912,104151
23775,108920,104163
23778,108919,104206
23783,108920,104216
23788,108914,104206
23793,108919,104204
23798,108920,104206
23803,108908,104275
23809,108900,104202
23815,108913,104186
23820,108912,104190
23823,108928,104213
23828,108913,104214
23833,108909,104211
23838,108917,104254
23843,108909,104235
23848,108913,104258
23854,108907,104215
23859,108916,104174
23863,108908,104214
23868,108915,104242
23873,108909,104235
23878,108912,104215
23883,108920,104275
23888,108910,104299
23894,108938,104234
23899,108929,104219
23904,108933,104202
23908,108924,104235
23913,108931,104214
23918,108944,104224
23923,108943,104233
23928,108940,104236
23933,108943,104257
23939,108958,104216
23944,108962,104222
23949,108963,104208
23953,108965,104227
23958,108978,104252
23963,108980,104231
23968,108998,104267
23973,108995,104280
23979,109002,104300
23984,108991,104220
23989,109003,104190
23994,109000,104240
23998,109002,104257
24003,109007,104246
24008,109018,104268
24013,109020,104257
24018,109013,104282
24024,109024,104260
24029,109011,104262
24034,109018,104216
24038,109002,104249
24043,108993,104277
24048,109006,104278
24053,108989,104279
24058,108980,104298
24064,109002,104301
24069,108982,104275
24074,108967,104252
24079,108951,104245
24083,108965,104274
24088,108951,104285
24093,108947,104263
24098,108953,104292
24103,108942,104297
24109,108934,104287
24114,108931,104209
24119,108936,104195
24124,108951,104218
24128,108935,104229
24133,108932,104215
24138,108939,104202
24143,108944,104223
24148,108941,104188
24154,108937,104188
24159,108928,104134
24164,108937,104110
24169,108927,104129
24173,108929,104149
24178,108929,104121
24183,108911,104101
24188,108917,104114
24194,108924,104098
24199,108905,104069
24204,108900,104063
24209,108908,104057
24213,108912,104058
24218,108907,104087
24223,108904,104072
24228,108913,104061
24233,108904,104088
24239,108902,104100
24244,108909,104036
24249,108897,104047
24254,108902,104059
24258,108910,104071
24263,108903,104075
24268,108884,104082
24273,108895,104117
24279,108891,104120
24284,108900,104110
24289,108890,104073
24294,108887,104069
24297,108889,104108
24303,108903,104120
24308,108897,104113
24313,108886,104130
24318,108882,104142
24324,108875,104148
24329,108868,104126
24334,108878,104106
24339,108876,104111
24342,108880,104145
24347,108878,104169
24352,108860,104177
24358,108876,104194
24364,108876,104229
24369,108880,104214
24374,108880,104179
24379,108875,104161
24382,108871,104192
24387,108880,104238
24392,108888,104237
24398,108872,104224
24403,108879,104241
24409,108870,104256
24414,108864,104213
24419,108887,104221
24424,108878,104222
24427,108857,104244
24432,108892,104247
24437,108866,104253
24442,108873,104255
24448,108858,104263
24454,108864,104276
24459,108883,104255
24464,108865,104229
24467,108880,104258
24472,108904,104251
24477,108868,104263
24482,108886,104259
24487,108885,104299
24493,108878,104257
24498,108884,104227
24503,108907,104189
24509,108870,104256
24512,108927,104272
24517,108962,104274
24522,108899,104256
24527,108890,104276
24532,108883,104283
24538,108904,104281
24543,108878,104233
24548,108881,104236
24552,108936,104244
24557,108957,104266
24562,108900,104251
24567,108890,104260
24572,108884,104316
24578,108891,104285
24583,108894,104290
24588,108888,104254
24593,108896,104239
24597,108971,104282
24602,108936,104287
24607,108893,104264
24612,108878,104311
24617,108884,104301
24623,108891,104308
24628,108884,104240
24633,108908,104255
24638,108972,104273
24642,108944,104276
24647,108845,104310
24652,108880,104280
24657,108881,104323
24663,108886,104328
24668,108882,104343
24673,108904,104235
24678,108940,104263
24682,108909,104295
24687,108820,104327
24692,108858,104306
24697,108869,104329
24702,108847,104340
24708,108837,104366
24713,108844,104328
24718,108934,104301
24723,108888,104287
24727,108817,104319
24732,108765,104337
24737,108827,104291
24742,108824,104332
24748,108837,104330
24753,108820,104305
24758,108898,104283
24763,108893,104277
24768,108851,104193
24772,108745,104234
24777,108768,104227
24782,108827,104226
24787,108833,104190
24793,108836,104193
24798,108880,104230
24803,108909,104129
24808,108892,104126
24813,108751,104114
24817,108765,104130
24822,108803,104133
24827,108835,104104
24833,108831,104105
24838,108888,104131
24843,108928,104109
24848,108889,104098
24853,108782,104055
24858,108782,104071
24862,108818,104093
24867,108832,104113
24872,108866,104105
24878,108894,104126
24883,108951,104139
24888,108940,104131
24893,108838,104118
24898,108819,104066
24902,108835,104095
24907,108849,104139
24912,108882,104126
24918,108921,104124
24923,108974,104148
24928,108942,104175
24933,108855,104165
24938,108823,104147
24943,108845,104143
24951,108879,104170
24956,108838,104136
24962,108854,104136
24966,108869,104152
24971,108865,104211
24976,108872,104219
24981,108900,104273
24986,108921,104256
24991,108895,104197
24996,108866,104141
25001,108852,104121
25006,108874,104211
25011,108869,104244
25016,108862,104258
25021,108889,104256
25026,108898,104332
25031,108881,104304
25036,108861,104215
25041,108818,104206
25044,108851,104213
25050,108852,104268
25055,108857,104291
25060,108845,104285
25066,108867,104305
25071,108871,104354
25076,108826,104314
25081,108806,104279
25084,108857,104213
25090,108862,104291
25095,108863,104290
25100,108869,104307
25105,108880,104310
25110,108888,104352
25116,108826,104348
25121,108812,104317
25124,108851,104244
25129,108856,104287
25135,108866,104288
25140,108867,104303
25145,108882,104293
25150,108884,104298
25155,108854,104391
25160,108819,104347
25164,108867,104291
25169,108881,104290
25175,108880,104299
25180,108879,104298
25185,108898,104303
25190,108909,104283
25195,108881,104336
25200,108834,104385
25205,108876,104340
25209,108890,104247
25214,108878,104312
25220,108910,104308
25225,108927,104304
25230,108936,104324
25235,108900,104328
25240,108858,104381
25245,108880,104379
25249,108910,104354
25254,108915,104307
25260,108910,104326
25265,108930,104314
25270,108947,104329
25275,108912,104323
25280,108889,104331
25285,108895,104387
25289,108907,104360
25294,108918,104334
25299,108910,104323
25305,108927,104339
25310,108951,104358
25315,108907,104365
25320,108876,104353
25325,108845,104363
25329,108866,104418
25334,108862,104358
25339,108855,104354
25345,108875,104382
25350,108879,104370
25355,108859,104382
25360,108802,104390
25365,108806,104406
25369,108830,104415
25374,108824,104379
25379,108828,104381
25384,108827,104396
25390,108844,104384
25395,108842,104366
25400,108800,104370
25405,108776,104338
25409,108792,104340
25414,108824,104328
25419,108838,104310
25424,108813,104286
25430,108825,104273
25435,108832,104271
25440,108794,104257
25445,108782,104234
25448,108788,104234
25453,108813,104208
25459,108821,104200
25464,108810,104207
25469,108827,104183
25475,108816,104191
25480,108789,104197
25485,108756,104178
25488,108801,104174
25493,108798,104178
25498,108801,104181
25503,108816,104164
25509,108810,104152
25515,108822,104158
25520,108780,104148
25525,108741,104164
25528,108778,104167
25533,108799,104173
25538,108792,104170
25543,108782,104180
25548,108816,104194
25553,108816,104159
25559,108756,104217
25565,108743,104197
25568,108779,104227
25573,108755,104199
25578,108775,104201
25583,108777,104203
25588,108793,104204
25593,108784,104235
25598,108753,104208
25604,108751,104252
25608,108760,104272
25613,108776,104265
25618,108776,104259
25623,108780,104278
25628,108812,104278
25633,108797,104295
25638,108777,104299
25644,108756,104302
25649,108763,104304
25653,108795,104304
25658,108780,104323
25663,108802,104327
25668,108822,104343
25673,108832,104334
25678,108812,104330
25683,108773,104335
25689,108774,104349
25693,108807,104357
25698,108804,104348
25703,108822,104350
25708,108834,104352
25713,108868,104359
25718,108859,104365
25723,108838,104354
25729,108855,104371
25733,108891,104359
25738,108932,104367
25743,108940,104355
25748,108959,104361
25753,108970,104365
25758,108991,104361
25763,108956,104374
25768,108949,104374
25773,108961,104372
25778,108982,104399
25783,109004,104365
25788,109011,104378
25793,109030,104377
25798,109037,104388
25803,108973,104410
25808,108959,104406
25814,108959,104389
25818,108965,104381
25823,108939,104385
25828,108948,104358
25833,108955,104357
25838,108932,104363
25843,108866,104354
25848,108802,104340
25853,108807,104342
25858,108815,104339
25863,108774,104347
25868,108751,104336
25873,108745,104327
25878,108766,104334
25883,108692,104307
25888,108657,104310
25893,108664,104311
25896,108664,104318
25903,108659,104302
25908,108647,104312
25913,108656,104319
25918,108674,104321
25923,108622,104304
25928,108616,104306
25931,108631,104298
25936,108656,104329
25942,108676,104308
25947,108660,104313
25952,108680,104319
25958,108670,104312
25963,108658,104331
25968,108650,104326
25971,108664,104313
25976,108681,104342
25981,108680,104339
25987,108668,104364
25992,108661,104335
25997,108668,104339
26002,108607,104337
26007,108586,104333
26012,108588,104313
26016,108611,104317
26021,108607,104332
26027,108592,104329
26032,108604,104313
26037,108618,104319
26042,108606,104323
26047,108545,104285
26052,108540,104287
26056,108556,104266
26061,108559,104265
26066,108557,104260
26072,108572,104257
26077,108581,104247
26082,108554,104258
26087,108538,104243
26092,108526,104246
26096,108544,104227
26101,108565,104233
26106,108569,104221
26112,108564,104215
26117,108580,104209
26122,108583,104200
26127,108538,104183
26132,108515,104198
26137,108551,104216
26141,108561,104218
26146,108555,104214
26151,108553,104213
26157,108575,104225
26162,108568,104218
26167,108494,104234
26172,108466,104210
26177,108480,104230
26181,108505,104227
26186,108491,104251
26191,108483,104228
26196,108501,104256
26202,108529,104245
26207,108464,104248
26212,108429,104271
26217,108431,104274
26221,108445,104302
26226,108457,104299
26231,108441,104301
26236,108468,104312
26242,108473,104335
26247,108458,104340
26252,108427,104344
26257,108410,104329
26261,108434,104365
26266,108459,104345
26271,108470,104345
26276,108477,104369
26281,108502,104385
26287,108485,104388
26292,108434,104390
26297,108435,104388
26300,108456,104407
26306,108448,104398
26311,108450,104402
26316,108466,104401
26321,108491,104424
26327,108473,104419
26332,108411,104439
26337,108427,104414
26340,108440,104416
26345,108461,104436
26350,108460,104421
26356,108473,104425
26361,108469,104422
26366,108438,104426
26372,108380,104440
26377,108399,104414
26380,108422,104426
26385,108411,104430
26390,108423,104414
26395,108427,104446
26400,108439,104450
26405,108416,104431
26412,108387,104417
26417,108379,104405
26420,108384,104408
26425,108384,104402
26430,108371,104397
26435,108381,104400
26440,108415,104413
26445,108403,104399
26450,108359,104417
26456,108336,104402
26460,108351,104421
26465,108365,104404
26470,108368,104401
26475,108383,104395
26480,108393,104396
26485,108408,104398
26490,108356,104395
26496,108338,104422
26501,108379,104436
26505,108379,104428
26510,108388,104425
26515,108408,104441
26520,108427,104428
26525,108431,104434
26530,108416,104440
26535,108379,104459
26541,108368,104459
26545,108406,104452
26550,108393,104454
26555,108381,104493
26560,108413,104475
26565,108416,104499
26570,108395,104507
26575,108360,104534
26580,108324,104536
26586,108353,104512
26590,108358,104548
26595,108353,104561
26600,108366,104554
26605,108388,104563
26610,108376,104581
26615,108338,104565
26620,108324,104571
26626,108363,104551
26631,108357,104567
26635,108360,104581
26640,108363,104552
26645,108392,104578
26650,108388,104566
26655,108340,104546
26660,108330,104524
26665,108367,104494
26671,108383,104472
26675,108384,104496
26680,108399,104465
26685,108420,104454
26690,108439,104422
26695,108381,104417
26700,108386,104439
26705,108392,104438
26711,108419,104374
26716,108426,104346
26720,108430,104366
26725,108462,104383
26730,108489,104359
26735,108470,104361
26740,108432,104343
26745,108435,104341
26750,108454,104319
26756,108465,104320
26761,108455,104299
26765,108473,104347
26770,108499,104324
26775,108496,104336
26780,108436,104330
26785,108444,104345
26790,108461,104368
26796,108477,104340
26801,108482,104316
26806,108496,104343
26809,108497,104369
26814,108497,104369
26820,108449,104371
26825,108421,104363
26830,108450,104441
26835,108474,104429
26841,108473,104379
26846,108480,104374
26849,108491,104414
26854,108505,104401
26859,108455,104430
26864,108445,104427
26869,108456,104440
26874,108478,104483
26881,108489,104456
26886,108494,104423
26891,108517,104448
26894,108528,104483
26899,108491,104499
26904,108478,104503
26909,108504,104503
26914,108525,104543
26919,108535,104516
26925,108540,104493
26931,108570,104483
26934,108585,104519
26939,108531,104540
26944,108535,104541
26949,108573,104556
26954,108576,104589
26959,108610,104584
26964,108603,104533
26970,108650,104504
26975,108648,104514
26979,108596,104537
26984,108614,104578
26989,108643,104555
26994,108649,104588
26999,108675,104592
27004,108675,104573
27010,108689,104524
27015,108707,104525
27019,108671,104539
27024,108654,104567
27029,108681,104584
27034,108698,104571
27039,108710,104602
27044,108705,104596
27049,108738,104552
27055,108744,104559
27060,108685,104553
27064,108672,104575
27069,108692,104585
27074,108722,104587
27079,108710,104608
27084,108722,104578
27089,108722,104604
27095,108743,104544
27100,108715,104548
27105,108679,104548
27109,108706,104606
27114,108704,104571
27119,108712,104589
27124,108723,104603
27129,108738,104627
27134,108768,104640
27140,108704,104579
27145,108671,104552
27150,108671,104582
27154,108678,104605
27159,108679,104607
27164,108701,104601
27169,108716,104608
27174,108719,104633
27180,108722,104616
27185,108678,104573
27190,108663,104549
27194,108678,104573
27199,108687,104591
27204,108685,104587
27209,108688,104592
27214,108723,104603
27219,108708,104580
27225,108664,104553
27230,108649,104523
27235,108665,104491
27239,108666,104525
27244,108692,104509
27249,108677,104485
27254,108677,104478
27259,108698,104490
27265,108640,104476
27270,108652,104428
27275,108658,104404
27280,108686,104407
27284,108679,104403
27289,108680,104411
27294,108696,104385
27299,108705,104364
27304,108672,104399
27310,108660,104425
27315,108611,104351
27320,108676,104339
27325,108683,104364
27329,108660,104352
27334,108682,104352
27339,108704,104358
27344,108694,104386
27350,108650,104398
27355,108644,104380
27360,108663,104337
27365,108680,104322
27368,108723,104361
27373,108742,104392
27379,108749,104389
27384,108744,104377
27389,108718,104412
27395,108694,104416
27400,108726,104354
27405,108752,104372
27410,108741,104402
27413,108778,104428
27418,108799,104436
27424,108768,104464
27429,108766,104473
27435,108796,104505
27440,108842,104473
27445,108868,104439
27450,108882,104451
27453,108884,104466
27458,108914,104487
27463,108876,104489
27468,108859,104521
27474,108875,104503
27480,108891,104517
27485,108906,104501
27490,108894,104523
27495,108904,104499
27498,108897,104506
27503,108881,104525
27508,108845,104506
27513,108866,104548
27518,108869,104570
27524,108872,104537
27530,108874,104492
27535,108850,104472
27540,108839,104514
27543,108834,104520
27548,108805,104520
27553,108788,104539
27558,108786,104551
27564,108768,104570
27569,108768,104577
27574,108757,104519
27579,108727,104510
27583,108735,104505
27588,108685,104543
27593,108640,104536
27598,108668,104533
27603,108682,104573
27609,108637,104551
27614,108605,104521
27619,108581,104513
27624,108576,104507
27628,108549,104516
27633,108485,104564
27638,108486,104538
27643,108466,104544
27649,108450,104577
27654,108430,104534
27659,108433,104509
27664,108413,104480
27669,108397,104499
27673,108380,104537
27678,108370,104519
27683,108351,104530
27688,108363,104557
27694,108346,104577
27699,108349,104560
27704,108334,104531
27709,108328,104491
27713,108341,104520
27718,108312,104538
27723,108333,104527
27728,108322,104541
27734,108305,104538
27739,108321,104569
27744,108313,104558
27749,108307,104505
27754,108296,104511
27758,108286,104553
27763,108284,104547
27768,108269,104547
27773,108245,104543
27779,108230,104543
27784,108217,104565
27789,108173,104540
27794,108156,104473
27799,108121,104511
27803,108062,104536
27808,108040,104526
27813,107988,104507
27819,107971,104531
27824,107926,104535
27829,107923,104471
27834,107898,104480
27839,107875,104418
27844,107886,104431
27848,107886,104433
27853,107887,104432
27858,107882,104411
27864,107871,104410
27869,107857,104405
27874,107847,104410
27879,107832,104344
27884,107831,104330
27888,107842,104358
27893,107865,104339
27898,107889,104355
27904,107896,104372
27909,107929,104356
27914,107939,104391
27919,107960,104330
27924,107996,104322
27928,107987,104327
27933,108007,104338
27938,108028,104325
27943,108036,104360
27949,108039,104374
27954,108052,104350
27959,108081,104346
27964,108082,104341
27968,108084,104363
27973,108090,104378
27978,108090,104388
27983,108065,104427
27988,108051,104397
27994,108032,104400
27999,108063,104375
28004,108027,104381
28008,108030,104407
28013,108018,104404
28018,107998,104458
28023,107997,104446
28028,107987,104427
28034,107995,104410
28039,108002,104394
28043,108012,104413
28048,108015,104429
28053,108038,104479
28058,108051,104485
28063,108068,104434
28068,108056,104413
28073,108074,104438
28078,108090,104471
28083,108114,104489
28088,108122,104500
28093,108135,104512
28098,108146,104469
28103,108159,104434
28108,108170,104495
28112,108197,104477
28119,108204,104514
28124,108190,104481
28129,108185,104500
28134,108200,104469
28139,108193,104450
28142,108197,104488
28148,108183,104524
28153,108183,104555
28158,108182,104464
28164,108178,104451
28169,108177,104454
28173,108174,104484
28178,108162,104525
28183,108164,104511
28188,108187,104500
28193,108180,104464
28198,108173,104452
28203,108195,104491
28208,108182,104555
28213,108216,104509
28218,108200,104488
28223,108209,104455
28228,108235,104502
28232,108262,104512
28238,108254,104533
28243,108259,104510
28249,108274,104482
28254,108278,104474
28257,108299,104513
28263,108289,104532
28268,108283,104508
28273,108289,104496
28278,108278,104500
28282,108267,104514
28289,108272,104531
28294,108260,104499
28299,108242,104477
28304,108218,104506
28307,108214,104513
28313,108179,104565
28318,108185,104514
28323,108182,104499
28328,108146,104520
28333,108146,104521
28338,108118,104547
28343,108116,104499
28348,108108,104488
28353,108106,104502
28357,108084,104513
28363,108089,104508
28368,108082,104506
28374,108090,104463
28378,108093,104478
28383,108100,104438
28388,108105,104476
28393,108110,104423
28397,108090,104441
28403,108106,104410
28408,108121,104396
28413,108137,104400
28418,108106,104408
28423,108119,104398
28428,108131,104354
28433,108120,104374
28437,108130,104383
28443,108114,104367
28448,108146,104358
28453,108134,104376
28457,108125,104384
28463,108130,104340
28468,108141,104332
28472,108155,104351
28478,108138,104369
28483,108153,104327
28487,108133,104368
28493,108139,104337
28498,108144,104346
28502,108149,104373
28508,108137,104340
28513,108163,104355
28517,108155,104391
28523,108140,104345
28528,108167,104379
28532,108141,104379
28538,108170,104384
28544,108158,104397
28547,108185,104420
28553,108183,104361
28558,108159,104427
28562,108182,104420
28568,108185,104406
28572,108172,104412
28578,108185,104418
28581,108195,104426
28588,108205,104417
28592,108210,104446
28598,108195,104470
28602,108202,104479
28608,108210,104447
28612,108204,104470
28618,108211,104487
28621,108198,104495
28628,108223,104483
28632,108231,104496
28638,108213,104485
28642,108224,104518
28648,108207,104495
28652,108219,104517
28658,108215,104506
28662,108249,104524
28666,108244,104527
28672,108262,104534
28677,108248,104532
28682,108261,104532
28687,108284,104539
28692,108272,104536
28697,108289,104558
28701,108285,104542
28706,108305,104537
28711,108304,104543
28717,108311,104545
28722,108316,104549
28727,108315,104538
28732,108332,104540
28737,108326,104558
28742,108334,104563
28746,108329,104556
28751,108341,104541
28756,108345,104547
28762,108333,104551
28767,108338,104557
28772,108342,104590
28777,108347,104577
28782,108353,104578
28786,108339,104576
28791,108363,104567
28796,108364,104585
28802,108368,104585
28807,108358,104577
28812,108371,104601
28817,108364,104598
28822,108379,104580
28827,108375,104607
28831,108379,104580
28836,108366,104586
28841,108347,104587
28847,108339,104595
28852,108313,104575
28857,108294,104593
28862,108280,104599
28867,108280,104597
28871,108229,104581
28876,108214,104592
28881,108184,104587
28887,108184,104580
28892,108151,104577
28897,108120,104583
28902,108093,104566
28907,108104,104539
28912,108105,104540
28916,108082,104551
28921,108069,104536
28926,108079,104507
28932,108084,104498
28937,108088,104472
28942,108093,104482
28947,108101,104457
28952,108143,104451
28957,108120,104453
28961,108120,104446
28966,108108,104417
28972,108095,104403
28977,108085,104420
28982,108095,104415
28987,108110,104384
28992,108112,104379
28997,108120,104385
29001,108129,104378
29006,108106,104382
29011,108093,104397
29017,108083,104381
29022,108078,104372
29027,108044,104371
29032,108043,104363
29037,108020,104384
29042,108013,104371
29046,108011,104370
29051,108001,104403
29057,107980,104397
29062,107920,104376
29067,107907,104395
29072,107880,104414
29077,107897,104389
29082,107907,104402
29086,107885,104432
29091,107920,104417
29096,107923,104425
